ptnum,bary_x,bary_y,bary_z,Rout,Cd_x,Cd_y,Cd_z,faceid,theta,P_x,P_y,P_z,vortex_core_vel_x,vortex_core_vel_y,vortex_core_vel_z,Rin,gamma
0,0.043683163821697235,0.9538204669952393,0.002496370580047369,3.0,1.0,0.0,0.0,614,0.19896751642227173,0.6861898303031921,0.0,0.13836011290550232,-0.0017882564570754766,0.0,0.0034543429501354694,0.699999988079071,1.0
1,0.030579661950469017,0.9458721280097961,0.02354821003973484,3.0,1.0,0.0,0.0,614,0.19896751642227173,0.6907081007957458,0.0,0.13927116990089417,-0.016775505617260933,0.0,0.03204301744699478,0.699999988079071,1.0
2,0.01747613400220871,0.9379238486289978,0.04460001736879349,3.0,1.0,0.0,0.0,614,0.19896751642227173,0.6952263712882996,0.0,0.14018221199512482,-0.031596310436725616,0.0,0.059663064777851105,0.699999988079071,1.0
3,0.0043725669384002686,0.9299753308296204,0.06565210223197937,3.0,1.0,0.0,0.0,614,0.19896751642227173,0.699744701385498,0.0,0.14109328389167786,-0.046250876039266586,0.0,0.08631487190723419,0.699999988079071,1.0
4,0.008663952350616455,0.080580934882164,0.9107550978660583,3.0,1.0,0.0,0.0,1337,0.19896751642227173,0.704262912273407,0.0,0.14200429618358612,-0.052656568586826324,0.0,0.11625702679157257,0.699999988079071,1.0
5,0.021667301654815674,0.09244360774755478,0.8858891129493713,3.0,1.0,0.0,0.0,1337,0.19896751642227173,0.7087811827659607,0.0,0.14291533827781677,-0.05498124286532402,0.0,0.1471012830734253,0.699999988079071,1.0
6,0.03467053174972534,0.10430647432804108,0.8610230088233948,3.0,1.0,0.0,0.0,1337,0.19896751642227173,0.7132995128631592,0.0,0.14382639527320862,-0.05729936808347702,0.0,0.17666096985340118,0.699999988079071,1.0
7,0.04767364263534546,0.11616919189691544,0.8361571431159973,3.0,1.0,0.0,0.0,1337,0.19896751642227173,0.7178177833557129,0.0,0.14473743736743927,-0.059610720723867416,0.0,0.2049356997013092,0.699999988079071,1.0
8,0.060676753520965576,0.12803196907043457,0.8112912774085999,3.0,1.0,0.0,0.0,1337,0.19896751642227173,0.7223360538482666,0.0,0.14564849436283112,-0.06191539019346237,0.0,0.23192588984966278,0.699999988079071,1.0
9,0.07368022203445435,0.1398947387933731,0.7864250540733337,3.0,1.0,0.0,0.0,1337,0.19896751642227173,0.7268543839454651,0.0,0.14655953645706177,-0.06421320885419846,0.0,0.2576318085193634,0.699999988079071,1.0
10,0.08668333292007446,0.15175743401050568,0.761559247970581,3.0,1.0,0.0,0.0,1337,0.19896751642227173,0.7313726544380188,0.0,0.14747057855129242,-0.06650438904762268,0.0,0.2820526659488678,0.699999988079071,1.0
11,0.09968650341033936,0.16362012922763824,0.7366933822631836,3.0,1.0,0.0,0.0,1337,0.19896751642227173,0.7358909249305725,0.0,0.14838162064552307,-0.06878883391618729,0.0,0.305188924074173,0.699999988079071,1.0
12,0.11268967390060425,0.175482839345932,0.7118274569511414,3.0,1.0,0.0,0.0,1337,0.19896751642227173,0.7404091954231262,0.0,0.14929266273975372,-0.07106655836105347,0.0,0.32704058289527893,0.699999988079071,1.0
13,0.1256927251815796,0.18734562397003174,0.6869616508483887,3.0,1.0,0.0,0.0,1337,0.19896751642227173,0.7449274659156799,0.0,0.15020371973514557,-0.07333764433860779,0.0,0.3476075828075409,0.699999988079071,1.0
14,0.13869619369506836,0.19920839369297028,0.6620954275131226,3.0,1.0,0.0,0.0,1337,0.19896751642227173,0.7494457960128784,0.0,0.15111476182937622,-0.07560187578201294,0.0,0.3668902814388275,0.699999988079071,1.0
15,0.15169936418533325,0.21107108891010284,0.6372295618057251,3.0,1.0,0.0,0.0,1337,0.19896751642227173,0.7539640665054321,0.0,0.15202580392360687,-0.07785943895578384,0.0,0.38488805294036865,0.699999988079071,1.0
16,0.16470235586166382,0.22293387353420258,0.6123637557029724,3.0,1.0,0.0,0.0,1337,0.19896751642227173,0.7584823369979858,0.0,0.15293686091899872,-0.08011037111282349,0.0,0.401601105928421,0.699999988079071,1.0
17,0.17770564556121826,0.2347964644432068,0.587497889995575,3.0,1.0,0.0,0.0,1337,0.19896751642227173,0.7630006074905396,0.0,0.15384788811206818,-0.08235441148281097,0.0,0.41702964901924133,0.699999988079071,1.0
18,0.1907086968421936,0.2466592788696289,0.5626320242881775,3.0,1.0,0.0,0.0,1337,0.19896751642227173,0.7675188779830933,0.0,0.15475894510746002,-0.08459189534187317,0.0,0.43117353320121765,0.699999988079071,1.0
19,0.20371216535568237,0.25852203369140625,0.5377658009529114,3.0,1.0,0.0,0.0,1337,0.19896751642227173,0.7720372080802917,0.0,0.15566998720169067,-0.08682253956794739,0.0,0.4440329968929291,0.699999988079071,1.0
20,0.21671533584594727,0.2703847289085388,0.5128999352455139,3.0,1.0,0.0,0.0,1337,0.19896751642227173,0.7765554785728455,0.0,0.15658102929592133,-0.08904650062322617,0.0,0.4556076228618622,0.699999988079071,1.0
21,0.22971835732460022,0.28224754333496094,0.48803409934043884,3.0,1.0,0.0,0.0,1337,0.19896751642227173,0.7810737490653992,0.0,0.15749208629131317,-0.09126382321119308,0.0,0.4658975899219513,0.699999988079071,1.0
22,0.2427217662334442,0.2941102981567383,0.4631679356098175,3.0,1.0,0.0,0.0,1337,0.19896751642227173,0.7855920791625977,0.0,0.15840312838554382,-0.09347432851791382,0.0,0.4749031066894531,0.699999988079071,1.0
23,0.25572502613067627,0.30597296357154846,0.43830204010009766,3.0,1.0,0.0,0.0,1337,0.19896751642227173,0.7901103496551514,0.0,0.15931417047977448,-0.09567810595035553,0.0,0.4826238751411438,0.699999988079071,1.0
24,0.2687280476093292,0.3178357481956482,0.4134362041950226,3.0,1.0,0.0,0.0,1337,0.19896751642227173,0.7946286201477051,0.0,0.16022522747516632,-0.09787524491548538,0.0,0.4890599548816681,0.699999988079071,1.0
25,0.2817313075065613,0.3296983540058136,0.3885703682899475,3.0,1.0,0.0,0.0,1337,0.19896751642227173,0.7991468906402588,0.0,0.16113625466823578,-0.10006557404994965,0.0,0.49421149492263794,0.699999988079071,1.0
26,0.294734388589859,0.34156113862991333,0.36370447278022766,3.0,1.0,0.0,0.0,1337,0.19896751642227173,0.8036651611328125,0.0,0.16204731166362762,-0.10224924981594086,0.0,0.498078316450119,0.699999988079071,1.0
27,0.3077377676963806,0.35342392325401306,0.33883827924728394,3.0,1.0,0.0,0.0,1337,0.19896751642227173,0.808183491230011,0.0,0.16295835375785828,-0.10442617535591125,0.0,0.5006605982780457,0.699999988079071,1.0
28,0.3207409679889679,0.36528661847114563,0.31397244334220886,3.0,1.0,0.0,0.0,1337,0.19896751642227173,0.8127017617225647,0.0,0.16386939585208893,-0.10659638792276382,0.0,0.5019582509994507,0.699999988079071,1.0
29,0.33374401926994324,0.37714940309524536,0.2891065776348114,3.0,1.0,0.0,0.0,1337,0.19896751642227173,0.8172200322151184,0.0,0.16478045284748077,-0.10875990986824036,0.0,0.5019711852073669,0.699999988079071,1.0
30,0.3467472493648529,0.38901203870773315,0.26424071192741394,3.0,1.0,0.0,0.0,1337,0.19896751642227173,0.8217383027076721,0.0,0.16569148004055023,-0.11091665178537369,0.0,0.5006995797157288,0.699999988079071,1.0
31,0.35975027084350586,0.4008748233318329,0.23937486112117767,3.0,1.0,0.0,0.0,1337,0.19896751642227173,0.8262565732002258,0.0,0.16660253703594208,-0.11306672543287277,0.0,0.4981432557106018,0.699999988079071,1.0
32,0.3727535009384155,0.41273748874664307,0.2145089954137802,3.0,1.0,0.0,0.0,1337,0.19896751642227173,0.8307748436927795,0.0,0.16751357913017273,-0.11521004140377045,0.0,0.4943023920059204,0.699999988079071,1.0
33,0.3857569694519043,0.4246002733707428,0.1896427869796753,3.0,1.0,0.0,0.0,1337,0.19896751642227173,0.835293173789978,0.0,0.16842462122440338,-0.11734666675329208,0.0,0.489176869392395,0.699999988079071,1.0
34,0.398760050535202,0.43646302819252014,0.16477695107460022,3.0,1.0,0.0,0.0,1337,0.19896751642227173,0.8398114442825317,0.0,0.16933567821979523,-0.1194765716791153,0.0,0.482766717672348,0.699999988079071,1.0
35,0.41176337003707886,0.44832587242126465,0.1399107575416565,3.0,1.0,0.0,0.0,1337,0.19896751642227173,0.8443297743797302,0.0,0.17024672031402588,-0.12159975618124008,0.0,0.47507181763648987,0.699999988079071,1.0
36,0.4247666001319885,0.46018853783607483,0.11504489928483963,3.0,1.0,0.0,0.0,1337,0.19896751642227173,0.8488480448722839,0.0,0.17115776240825653,-0.12371620535850525,0.0,0.46609243750572205,0.699999988079071,1.0
37,0.43776968121528625,0.4720512926578522,0.09017905592918396,3.0,1.0,0.0,0.0,1337,0.19896751642227173,0.8533663153648376,0.0,0.17206881940364838,-0.1258259415626526,0.0,0.45582839846611023,0.699999988079071,1.0
38,0.4507729113101959,0.48391392827033997,0.0653131827712059,3.0,1.0,0.0,0.0,1337,0.19896751642227173,0.8578845858573914,0.0,0.17297984659671783,-0.1279289424419403,0.0,0.4442797303199768,0.699999988079071,1.0
39,0.46377596259117126,0.4957767128944397,0.040447335690259933,3.0,1.0,0.0,0.0,1337,0.19896751642227173,0.8624028563499451,0.0,0.17389090359210968,-0.1300252377986908,0.0,0.4314464330673218,0.699999988079071,1.0
40,0.47677913308143616,0.5076394081115723,0.015581470914185047,3.0,1.0,0.0,0.0,1337,0.19896751642227173,0.8669211268424988,0.0,0.17480194568634033,-0.13211479783058167,0.0,0.41732853651046753,0.699999988079071,1.0
41,0.008860588073730469,0.5149634480476379,0.4761759638786316,3.0,1.0,0.0,0.0,403,0.19896751642227173,0.8714394569396973,0.0,0.17571300268173218,-0.1321142166852951,0.0,0.40527719259262085,0.699999988079071,1.0
42,0.032590657472610474,0.5146704912185669,0.45273885130882263,3.0,1.0,0.0,0.0,403,0.19896751642227173,0.875957727432251,0.0,0.17662404477596283,-0.1285955160856247,0.0,0.39841756224632263,0.699999988079071,1.0
43,0.05632072687149048,0.5143774151802063,0.4293018579483032,3.0,1.0,0.0,0.0,403,0.19896751642227173,0.8804759979248047,0.0,0.1775350719690323,-0.12504824995994568,0.0,0.39151397347450256,0.699999988079071,1.0
44,0.0800507664680481,0.5140845775604248,0.4058646559715271,3.0,1.0,0.0,0.0,403,0.19896751642227173,0.8849942684173584,0.0,0.17844612896442413,-0.12147240340709686,0.0,0.38456642627716064,0.699999988079071,1.0
45,0.10378080606460571,0.5137916207313538,0.3824275732040405,3.0,1.0,0.0,0.0,403,0.19896751642227173,0.8895125389099121,0.0,0.17935717105865479,-0.11786799877882004,0.0,0.37757495045661926,0.699999988079071,1.0
46,0.12751108407974243,0.5134987235069275,0.3589901924133301,3.0,1.0,0.0,0.0,403,0.19896751642227173,0.8940308690071106,0.0,0.18026822805404663,-0.11423497647047043,0.0,0.37053945660591125,0.699999988079071,1.0
47,0.1512412130832672,0.5132057070732117,0.3355530798435211,3.0,1.0,0.0,0.0,403,0.19896751642227173,0.8985491394996643,0.0,0.18117927014827728,-0.110573410987854,0.0,0.36346006393432617,0.699999988079071,1.0
48,0.17497125267982483,0.5129127502441406,0.31211599707603455,3.0,1.0,0.0,0.0,403,0.19896751642227173,0.903067409992218,0.0,0.18209029734134674,-0.10688329488039017,0.0,0.3563367426395416,0.699999988079071,1.0
49,0.19870159029960632,0.5126198530197144,0.2886785566806793,3.0,1.0,0.0,0.0,403,0.19896751642227173,0.9075857400894165,0.0,0.18300136923789978,-0.10316455364227295,0.0,0.3491693437099457,0.699999988079071,1.0
50,0.22243160009384155,0.5123268961906433,0.26524150371551514,3.0,1.0,0.0,0.0,403,0.19896751642227173,0.9121040105819702,0.0,0.18391241133213043,-0.0994172915816307,0.0,0.3419581353664398,0.699999988079071,1.0
51,0.24616169929504395,0.5120339393615723,0.2418043613433838,3.0,1.0,0.0,0.0,403,0.19896751642227173,0.9166222810745239,0.0,0.18482345342636108,-0.09564144164323807,0.0,0.3347029685974121,0.699999988079071,1.0
52,0.2698916792869568,0.511741042137146,0.2183672934770584,3.0,1.0,0.0,0.0,403,0.19896751642227173,0.9211405515670776,0.0,0.18573449552059174,-0.09183704853057861,0.0,0.32740387320518494,0.699999988079071,1.0
53,0.293621689081192,0.511448085308075,0.19493022561073303,3.0,1.0,0.0,0.0,403,0.19896751642227173,0.9256588220596313,0.0,0.1866455376148224,-0.08800406754016876,0.0,0.3200607895851135,0.699999988079071,1.0
54,0.3173520863056183,0.5111551284790039,0.1714927852153778,3.0,1.0,0.0,0.0,403,0.19896751642227173,0.9301771521568298,0.0,0.18755659461021423,-0.08414246141910553,0.0,0.3126736581325531,0.699999988079071,1.0
55,0.3410821557044983,0.5108621716499329,0.14805568754673004,3.0,1.0,0.0,0.0,403,0.19896751642227173,0.9346954226493835,0.0,0.18846763670444489,-0.08025234192609787,0.0,0.30524271726608276,0.699999988079071,1.0
56,0.36481180787086487,0.5105693340301514,0.12461885809898376,3.0,1.0,0.0,0.0,403,0.19896751642227173,0.9392136335372925,0.0,0.18937867879867554,-0.07633370161056519,0.0,0.29776787757873535,0.699999988079071,1.0
57,0.38854214549064636,0.5102763175964355,0.10118154436349869,3.0,1.0,0.0,0.0,403,0.19896751642227173,0.943731963634491,0.0,0.1902897208929062,-0.07238639891147614,0.0,0.29024896025657654,0.699999988079071,1.0
58,0.412272185087204,0.5099833607673645,0.07774444669485092,3.0,1.0,0.0,0.0,403,0.19896751642227173,0.9482502341270447,0.0,0.19120076298713684,-0.06841056048870087,0.0,0.28268614411354065,0.699999988079071,1.0
59,0.4360022246837616,0.509690523147583,0.054307255893945694,3.0,1.0,0.0,0.0,403,0.19896751642227173,0.9527685046195984,0.0,0.1921118199825287,-0.0644061490893364,0.0,0.2750793695449829,0.699999988079071,1.0
60,0.4597325623035431,0.5093975067138672,0.030869942158460617,3.0,1.0,0.0,0.0,403,0.19896751642227173,0.9572868347167969,0.0,0.19302286207675934,-0.060373131185770035,0.0,0.26742857694625854,0.699999988079071,1.0
61,0.4834626615047455,0.5091044902801514,0.007432841695845127,3.0,1.0,0.0,0.0,403,0.19896751642227173,0.9618051052093506,0.0,0.19393390417099,-0.05631157383322716,0.0,0.2597339153289795,0.699999988079071,1.0
62,0.49212896823883057,0.012460563331842422,0.4954104423522949,3.0,1.0,0.0,0.0,1445,0.19896751642227173,0.9663234353065491,0.0,0.19484496116638184,-0.05446889251470566,0.0,0.2544875741004944,0.699999988079071,1.0
63,0.4937994182109833,0.03070780448615551,0.47549280524253845,3.0,1.0,0.0,0.0,1445,0.19896751642227173,0.9708417057991028,0.0,0.1957560032606125,-0.053659532219171524,0.0,0.2504443824291229,0.699999988079071,1.0
64,0.49546971917152405,0.04895506799221039,0.45557519793510437,3.0,1.0,0.0,0.0,1445,0.19896751642227173,0.9753599762916565,0.0,0.19666704535484314,-0.052843127399683,0.0,0.2464635819196701,0.699999988079071,1.0
65,0.4971400499343872,0.06720259040594101,0.4356573820114136,3.0,1.0,0.0,0.0,1445,0.19896751642227173,0.979878306388855,0.0,0.19757810235023499,-0.05201967805624008,0.0,0.2425452321767807,0.699999988079071,1.0
66,0.4988103210926056,0.08544940501451492,0.4157402813434601,3.0,1.0,0.0,0.0,1445,0.19896751642227173,0.9843964576721191,0.0,0.19848912954330444,-0.051189206540584564,0.0,0.23868942260742188,0.699999988079071,1.0
67,0.5004806518554688,0.10369715839624405,0.395822137594223,3.0,1.0,0.0,0.0,1445,0.19896751642227173,0.9889148473739624,0.0,0.19940020143985748,-0.050351642072200775,0.0,0.23489584028720856,0.699999988079071,1.0
68,0.5021511316299438,0.12194409221410751,0.37590476870536804,3.0,1.0,0.0,0.0,1445,0.19896751642227173,0.9934330582618713,0.0,0.20031121373176575,-0.04950706660747528,0.0,0.23116490244865417,0.699999988079071,1.0
69,0.5038214921951294,0.14019186794757843,0.35598665475845337,3.0,1.0,0.0,0.0,1445,0.19896751642227173,0.9979514479637146,0.0,0.2012222856283188,-0.048655420541763306,0.0,0.22749625146389008,0.699999988079071,1.0
70,0.5054918527603149,0.15843886137008667,0.3360693156719208,3.0,1.0,0.0,0.0,1445,0.19896751642227173,1.0024696588516235,0.0,0.20213331282138824,-0.04779675975441933,0.0,0.22389017045497894,0.699999988079071,1.0
71,0.5071622133255005,0.1766861081123352,0.3161516785621643,3.0,1.0,0.0,0.0,1445,0.19896751642227173,1.0069879293441772,0.0,0.2030443549156189,-0.046931035816669464,0.0,0.22034646570682526,0.699999988079071,1.0
72,0.5088324546813965,0.1949334442615509,0.2962341010570526,3.0,1.0,0.0,0.0,1445,0.19896751642227173,1.011506199836731,0.0,0.20395541191101074,-0.046058278530836105,0.0,0.21686521172523499,0.699999988079071,1.0
73,0.510502815246582,0.21318067610263824,0.27631649374961853,3.0,1.0,0.0,0.0,1445,0.19896751642227173,1.0160244703292847,0.0,0.2048664540052414,-0.04517846927046776,0.0,0.21344639360904694,0.699999988079071,1.0
74,0.5121733546257019,0.231428325176239,0.2563983201980591,3.0,1.0,0.0,0.0,1445,0.19896751642227173,1.020542860031128,0.0,0.20577749609947205,-0.04429158568382263,0.0,0.21008995175361633,0.699999988079071,1.0
75,0.5138436555862427,0.24967563152313232,0.2364807277917862,3.0,1.0,0.0,0.0,1445,0.19896751642227173,1.0250611305236816,0.0,0.2066885530948639,-0.0433976911008358,0.0,0.20679602026939392,0.699999988079071,1.0
76,0.5155140161514282,0.26792290806770325,0.2165631204843521,3.0,1.0,0.0,0.0,1445,0.19896751642227173,1.0295794010162354,0.0,0.20759959518909454,-0.04249675199389458,0.0,0.20356453955173492,0.699999988079071,1.0
77,0.5171842575073242,0.28617021441459656,0.19664552807807922,3.0,1.0,0.0,0.0,1445,0.19896751642227173,1.034097671508789,0.0,0.2085106521844864,-0.041588760912418365,0.0,0.20039547979831696,0.699999988079071,1.0
78,0.518854558467865,0.3044174611568451,0.17672793567180634,3.0,1.0,0.0,0.0,1445,0.19896751642227173,1.0386159420013428,0.0,0.20942169427871704,-0.04067372530698776,0.0,0.1972888559103012,0.699999988079071,1.0
79,0.5205249786376953,0.322664737701416,0.15681031346321106,3.0,1.0,0.0,0.0,1445,0.19896751642227173,1.0431342124938965,0.0,0.2103327363729477,-0.039751652628183365,0.0,0.19424471259117126,0.699999988079071,1.0
80,0.5221953988075256,0.34091243147850037,0.1368921548128128,3.0,1.0,0.0,0.0,1445,0.19896751642227173,1.0476526021957397,0.0,0.21124379336833954,-0.03882249817252159,0.0,0.191262885928154,0.699999988079071,1.0
81,0.5238657593727112,0.3591591715812683,0.11697506159543991,3.0,1.0,0.0,0.0,1445,0.19896751642227173,1.052170753479004,0.0,0.2121548056602478,-0.037886351346969604,0.0,0.18834368884563446,0.699999988079071,1.0
82,0.5255361199378967,0.37740692496299744,0.09705693274736404,3.0,1.0,0.0,0.0,1445,0.19896751642227173,1.0566891431808472,0.0,0.21306587755680084,-0.036943111568689346,0.0,0.18548674881458282,0.699999988079071,1.0
83,0.5272064208984375,0.39565375447273254,0.07713986188173294,3.0,1.0,0.0,0.0,1445,0.19896751642227173,1.0612072944641113,0.0,0.2139769047498703,-0.035992883145809174,0.0,0.18269243836402893,0.699999988079071,1.0
84,0.5288766622543335,0.41390112042427063,0.05722227320075035,3.0,1.0,0.0,0.0,1445,0.19896751642227173,1.065725564956665,0.0,0.21488797664642334,-0.03503558784723282,0.0,0.1799604743719101,0.699999988079071,1.0
85,0.5305472016334534,0.43214869499206543,0.0373041070997715,3.0,1.0,0.0,0.0,1445,0.19896751642227173,1.0702439546585083,0.0,0.2157990038394928,-0.03407119959592819,0.0,0.1772908717393875,0.699999988079071,1.0
86,0.5322175621986389,0.45039597153663635,0.017386488616466522,3.0,1.0,0.0,0.0,1445,0.19896751642227173,1.074762225151062,0.0,0.21671004593372345,-0.03309980779886246,0.0,0.17468379437923431,0.699999988079071,1.0
87,0.0025257468223571777,0.46608638763427734,0.5313878655433655,3.0,1.0,0.0,0.0,956,0.19896751642227173,1.0792804956436157,0.0,0.2176211029291153,-0.03219231963157654,0.0,0.17229294776916504,0.699999988079071,1.0
88,0.02240198850631714,0.46421265602111816,0.5133853554725647,3.0,1.0,0.0,0.0,956,0.19896751642227173,1.0837987661361694,0.0,0.21853214502334595,-0.03175615519285202,0.0,0.17097000777721405,0.699999988079071,1.0
89,0.042278140783309937,0.4623388946056366,0.4953829348087311,3.0,1.0,0.0,0.0,956,0.19896751642227173,1.0883170366287231,0.0,0.2194431871175766,-0.03129705786705017,0.0,0.1696188598871231,0.699999988079071,1.0
90,0.06215432286262512,0.46046528220176697,0.4773803651332855,3.0,1.0,0.0,0.0,956,0.19896751642227173,1.0928353071212769,0.0,0.22035424411296844,-0.03081502765417099,0.0,0.1682395190000534,0.699999988079071,1.0
91,0.08203110098838806,0.45859140157699585,0.4593774974346161,3.0,1.0,0.0,0.0,956,0.19896751642227173,1.0973536968231201,0.0,0.2212652862071991,-0.030310042202472687,0.0,0.16683195531368256,0.699999988079071,1.0
92,0.10190725326538086,0.45671769976615906,0.4413750171661377,3.0,1.0,0.0,0.0,956,0.19896751642227173,1.1018719673156738,0.0,0.22217632830142975,-0.029782135039567947,0.0,0.16539619863033295,0.699999988079071,1.0
93,0.12178346514701843,0.45484402775764465,0.4233725368976593,3.0,1.0,0.0,0.0,956,0.19896751642227173,1.1063902378082275,0.0,0.2230873852968216,-0.029231296852231026,0.0,0.16393227875232697,0.699999988079071,1.0
