ptnum,bary_x,bary_y,bary_z,Rout,Cd_x,Cd_y,Cd_z,faceid,theta,P_x,P_y,P_z,vortex_core_vel_x,vortex_core_vel_y,vortex_core_vel_z,Rin,gamma
0,0.3003058433532715,0.6725872755050659,0.027106886729598045,2.0,1.0,0.0,0.0,1335,0.22165679931640625,0.9755345582962036,0.0,0.2198461890220642,-0.03311270475387573,0.0,0.0557272806763649,1.0,1.0
1,0.27684617042541504,0.674226701259613,0.04892713949084282,2.0,1.0,0.0,0.0,1335,0.22165679931640625,0.9774895310401917,0.0,0.2202867716550827,-0.058847032487392426,0.0,0.09723537415266037,1.0,1.0
2,0.25338560342788696,0.675866425037384,0.070747971534729,2.0,1.0,0.0,0.0,1335,0.22165679931640625,0.9794445633888245,0.0,0.22072733938694,-0.08376103639602661,0.0,0.135755717754364,1.0,1.0
3,0.22992587089538574,0.6775059103965759,0.09256821870803833,2.0,1.0,0.0,0.0,1335,0.22165679931640625,0.9813995361328125,0.0,0.2211679220199585,-0.10785338282585144,0.0,0.17128629982471466,1.0,1.0
4,0.20646685361862183,0.6791453957557678,0.11438775062561035,2.0,1.0,0.0,0.0,1335,0.22165679931640625,0.9833544492721558,0.0,0.2216084748506546,-0.13112400472164154,0.0,0.2038271725177765,1.0,1.0
5,0.18300722539424896,0.6807847619056702,0.13620801270008087,2.0,1.0,0.0,0.0,1335,0.22165679931640625,0.9853094220161438,0.0,0.2220490574836731,-0.15357443690299988,0.0,0.233380526304245,1.0,1.0
6,0.15954667329788208,0.6824244856834412,0.15802884101867676,2.0,1.0,0.0,0.0,1335,0.22165679931640625,0.9872644543647766,0.0,0.2224896252155304,-0.17520444095134735,0.0,0.25994572043418884,1.0,1.0
7,0.13608700037002563,0.6840639114379883,0.17984908819198608,2.0,1.0,0.0,0.0,1335,0.22165679931640625,0.9892194271087646,0.0,0.2229302078485489,-0.19601288437843323,0.0,0.2835215628147125,1.0,1.0
8,0.11262737214565277,0.6857032775878906,0.2016693502664566,2.0,1.0,0.0,0.0,1335,0.22165679931640625,0.9911743998527527,0.0,0.22337079048156738,-0.21600036323070526,0.0,0.30410873889923096,1.0,1.0
9,0.08916682004928589,0.6873430013656616,0.2234901785850525,2.0,1.0,0.0,0.0,1335,0.22165679931640625,0.9931294322013855,0.0,0.22381135821342468,-0.23516735434532166,0.0,0.32170751690864563,1.0,1.0
10,0.06570854783058167,0.688982367515564,0.24530908465385437,2.0,1.0,0.0,0.0,1335,0.22165679931640625,0.995084285736084,0.0,0.2242519110441208,-0.2535117268562317,0.0,0.3363163471221924,1.0,1.0
11,0.04224812984466553,0.6906219124794006,0.26712995767593384,2.0,1.0,0.0,0.0,1335,0.22165679931640625,0.9970393180847168,0.0,0.22469249367713928,-0.2710367739200592,0.0,0.34793776273727417,1.0,1.0
12,0.018788456916809082,0.6922613382339478,0.28895020484924316,2.0,1.0,0.0,0.0,1335,0.22165679931640625,0.9989942908287048,0.0,0.22513307631015778,-0.2877403497695923,0.0,0.35657015442848206,1.0,1.0
13,0.0030649304389953613,0.30667343735694885,0.6902616620063782,2.0,1.0,0.0,0.0,44,0.22165679931640625,1.0009492635726929,0.0,0.22557364404201508,-0.3004850745201111,0.0,0.36689913272857666,1.0,1.0
14,0.018457353115081787,0.30791836977005005,0.6736242771148682,2.0,1.0,0.0,0.0,44,0.22165679931640625,1.0029042959213257,0.0,0.22601422667503357,-0.30017974972724915,0.0,0.3942578434944153,1.0,1.0
15,0.03384983539581299,0.30916327238082886,0.6569868922233582,2.0,1.0,0.0,0.0,44,0.22165679931640625,1.0048593282699585,0.0,0.22645480930805206,-0.29970645904541016,0.0,0.4205847978591919,1.0,1.0
16,0.0492403507232666,0.31040826439857483,0.640351414680481,2.0,1.0,0.0,0.0,44,0.22165679931640625,1.0068141222000122,0.0,0.22689536213874817,-0.2990654408931732,0.0,0.44587695598602295,1.0,1.0
17,0.06463289260864258,0.3116530478000641,0.6237140893936157,2.0,1.0,0.0,0.0,44,0.22165679931640625,1.008769154548645,0.0,0.22733592987060547,-0.29825618863105774,0.0,0.47014033794403076,1.0,1.0
18,0.08002543449401855,0.3128979504108429,0.6070766448974609,2.0,1.0,0.0,0.0,44,0.22165679931640625,1.0107241868972778,0.0,0.22777651250362396,-0.2972790598869324,0.0,0.49337199330329895,1.0,1.0
19,0.09541791677474976,0.3141428828239441,0.5904392004013062,2.0,1.0,0.0,0.0,44,0.22165679931640625,1.0126792192459106,0.0,0.22821709513664246,-0.29613399505615234,0.0,0.5155717134475708,1.0,1.0
20,0.110809326171875,0.3153878152370453,0.5738028287887573,2.0,1.0,0.0,0.0,44,0.22165679931640625,1.014634132385254,0.0,0.22865766286849976,-0.2948211133480072,0.0,0.5367382168769836,1.0,1.0
21,0.12620186805725098,0.3166327476501465,0.5571653842926025,2.0,1.0,0.0,0.0,44,0.22165679931640625,1.0165891647338867,0.0,0.22909824550151825,-0.29334017634391785,0.0,0.5568743944168091,1.0,1.0
22,0.14159339666366577,0.31787756085395813,0.5405290722846985,2.0,1.0,0.0,0.0,44,0.22165679931640625,1.01854407787323,0.0,0.22953879833221436,-0.2916913628578186,0.0,0.5759775042533875,1.0,1.0
23,0.15698480606079102,0.3191225230693817,0.5238926410675049,2.0,1.0,0.0,0.0,44,0.22165679931640625,1.0204989910125732,0.0,0.22997936606407166,-0.28987470269203186,0.0,0.594048798084259,1.0,1.0
24,0.172377347946167,0.3203674256801605,0.5072551965713501,2.0,1.0,0.0,0.0,44,0.22165679931640625,1.022454023361206,0.0,0.23041994869709015,-0.28788989782333374,0.0,0.6110895276069641,1.0,1.0
25,0.18776988983154297,0.32161229848861694,0.4906178116798401,2.0,1.0,0.0,0.0,44,0.22165679931640625,1.0244090557098389,0.0,0.23086053133010864,-0.28573712706565857,0.0,0.6270984411239624,1.0,1.0
26,0.20316234230995178,0.3228571116924286,0.47398051619529724,2.0,1.0,0.0,0.0,44,0.22165679931640625,1.0263640880584717,0.0,0.23130109906196594,-0.28341639041900635,0.0,0.6420754194259644,1.0,1.0
27,0.21855375170707703,0.3241022229194641,0.45734402537345886,2.0,1.0,0.0,0.0,44,0.22165679931640625,1.028319001197815,0.0,0.23174168169498444,-0.2809280753135681,0.0,0.6560197472572327,1.0,1.0
28,0.23394528031349182,0.32534703612327576,0.44070765376091003,2.0,1.0,0.0,0.0,44,0.22165679931640625,1.0302739143371582,0.0,0.23218223452568054,-0.2782716155052185,0.0,0.6689323782920837,1.0,1.0
29,0.24933776259422302,0.32659193873405457,0.4240702688694,2.0,1.0,0.0,0.0,44,0.22165679931640625,1.032228946685791,0.0,0.23262281715869904,-0.2754471004009247,0.0,0.6808139681816101,1.0,1.0
30,0.2647292912006378,0.32783690094947815,0.4074338376522064,2.0,1.0,0.0,0.0,44,0.22165679931640625,1.0341838598251343,0.0,0.23306338489055634,-0.2724548876285553,0.0,0.6916632056236267,1.0,1.0
31,0.280121773481369,0.32908180356025696,0.3907964527606964,2.0,1.0,0.0,0.0,44,0.22165679931640625,1.036138892173767,0.0,0.23350396752357483,-0.26929450035095215,0.0,0.7014812231063843,1.0,1.0
32,0.29551419615745544,0.33032673597335815,0.3741590678691864,2.0,1.0,0.0,0.0,44,0.22165679931640625,1.0380939245224,0.0,0.23394455015659332,-0.26596614718437195,0.0,0.7102673053741455,1.0,1.0
33,0.3109068274497986,0.331571489572525,0.3575217127799988,2.0,1.0,0.0,0.0,44,0.22165679931640625,1.0400489568710327,0.0,0.23438511788845062,-0.2624697685241699,0.0,0.7180216908454895,1.0,1.0
34,0.32629725337028503,0.332816481590271,0.34088626503944397,2.0,1.0,0.0,0.0,44,0.22165679931640625,1.0420037508010864,0.0,0.23482567071914673,-0.258806049823761,0.0,0.7247433066368103,1.0,1.0
35,0.34168973565101624,0.3340614140033722,0.32424888014793396,2.0,1.0,0.0,0.0,44,0.22165679931640625,1.0439587831497192,0.0,0.23526625335216522,-0.2549738883972168,0.0,0.7304341197013855,1.0,1.0
36,0.3570822775363922,0.335306316614151,0.3076114356517792,2.0,1.0,0.0,0.0,44,0.22165679931640625,1.045913815498352,0.0,0.23570683598518372,-0.25097373127937317,0.0,0.7350930571556091,1.0,1.0
37,0.37247374653816223,0.3365512490272522,0.29097500443458557,2.0,1.0,0.0,0.0,44,0.22165679931640625,1.0478687286376953,0.0,0.23614740371704102,-0.24680592119693756,0.0,0.7387198805809021,1.0,1.0
38,0.38786619901657104,0.337796151638031,0.27433764934539795,2.0,1.0,0.0,0.0,44,0.22165679931640625,1.0498237609863281,0.0,0.2365879863500595,-0.2424698919057846,0.0,0.7413151264190674,1.0,1.0
39,0.40325865149497986,0.3390410840511322,0.25770023465156555,2.0,1.0,0.0,0.0,44,0.22165679931640625,1.051778793334961,0.0,0.237028568983078,-0.2379659116268158,0.0,0.7428785562515259,1.0,1.0
40,0.418651282787323,0.3402858376502991,0.24106289446353912,2.0,1.0,0.0,0.0,44,0.22165679931640625,1.0537338256835938,0.0,0.2374691367149353,-0.23329395055770874,0.0,0.7434102892875671,1.0,1.0
41,0.4340417683124542,0.34153082966804504,0.22442743182182312,2.0,1.0,0.0,0.0,44,0.22165679931640625,1.0556886196136475,0.0,0.2379096895456314,-0.22845473885536194,0.0,0.7429101467132568,1.0,1.0
42,0.44943419098854065,0.34277576208114624,0.2077900469303131,2.0,1.0,0.0,0.0,44,0.22165679931640625,1.0576436519622803,0.0,0.2383502721786499,-0.22344693541526794,0.0,0.741378128528595,1.0,1.0
43,0.46482670307159424,0.34402066469192505,0.1911526322364807,2.0,1.0,0.0,0.0,44,0.22165679931640625,1.059598684310913,0.0,0.2387908548116684,-0.2182711660861969,0.0,0.7388143539428711,1.0,1.0
44,0.48021817207336426,0.345265656709671,0.1745162010192871,2.0,1.0,0.0,0.0,44,0.22165679931640625,1.0615535974502563,0.0,0.2392314225435257,-0.21292783319950104,0.0,0.7352189421653748,1.0,1.0
45,0.49561062455177307,0.34651052951812744,0.1578788459300995,2.0,1.0,0.0,0.0,44,0.22165679931640625,1.0635086297988892,0.0,0.2396720051765442,-0.20741617679595947,0.0,0.7305915355682373,1.0,1.0
46,0.5110031366348267,0.34775546193122864,0.1412414312362671,2.0,1.0,0.0,0.0,44,0.22165679931640625,1.065463662147522,0.0,0.24011258780956268,-0.20173659920692444,0.0,0.7249323129653931,1.0,1.0
47,0.5263946652412415,0.3490002751350403,0.12460505962371826,2.0,1.0,0.0,0.0,44,0.22165679931640625,1.0674185752868652,0.0,0.2405531406402588,-0.1958893984556198,0.0,0.7182416319847107,1.0,1.0
48,0.5417861342430115,0.3502452075481415,0.10796862095594406,2.0,1.0,0.0,0.0,44,0.22165679931640625,1.0693734884262085,0.0,0.2409937083721161,-0.18987427651882172,0.0,0.7105191946029663,1.0,1.0
49,0.5571786165237427,0.3514901399612427,0.09133123606443405,2.0,1.0,0.0,0.0,44,0.22165679931640625,1.0713285207748413,0.0,0.24143429100513458,-0.1836908757686615,0.0,0.7017645835876465,1.0,1.0
50,0.5725710988044739,0.3527350425720215,0.07469383627176285,2.0,1.0,0.0,0.0,44,0.22165679931640625,1.0732835531234741,0.0,0.24187487363815308,-0.17733949422836304,0.0,0.6919780373573303,1.0,1.0
51,0.5879626274108887,0.35398000478744507,0.05805739760398865,2.0,1.0,0.0,0.0,44,0.22165679931640625,1.0752384662628174,0.0,0.24231544137001038,-0.17082057893276215,0.0,0.6811604499816895,1.0,1.0
52,0.6033550500869751,0.3552249073982239,0.04142001271247864,2.0,1.0,0.0,0.0,44,0.22165679931640625,1.0771934986114502,0.0,0.24275602400302887,-0.16413331031799316,0.0,0.6693102717399597,1.0,1.0
53,0.6187465786933899,0.3564697206020355,0.024783646687865257,2.0,1.0,0.0,0.0,44,0.22165679931640625,1.0791484117507935,0.0,0.24319657683372498,-0.15727850794792175,0.0,0.65642911195755,1.0,1.0
54,0.6341390609741211,0.3577146530151367,0.008146262727677822,2.0,1.0,0.0,0.0,44,0.22165679931640625,1.0811034440994263,0.0,0.24363715946674347,-0.15025536715984344,0.0,0.6425154209136963,1.0,1.0
55,0.638265073299408,0.010148824192583561,0.35158610343933105,2.0,1.0,0.0,0.0,1567,0.22165679931640625,1.0830583572387695,0.0,0.24407772719860077,-0.14515262842178345,0.0,0.6316391229629517,1.0,1.0
56,0.6315816640853882,0.03003646247088909,0.3383818566799164,2.0,1.0,0.0,0.0,1567,0.22165679931640625,1.0850133895874023,0.0,0.24451830983161926,-0.14205628633499146,0.0,0.6244849562644958,1.0,1.0
57,0.6248983144760132,0.0499241016805172,0.3251776099205017,2.0,1.0,0.0,0.0,1567,0.22165679931640625,1.0869684219360352,0.0,0.24495889246463776,-0.13901874423027039,0.0,0.6174256205558777,1.0,1.0
58,0.6182150840759277,0.06981062144041061,0.31197425723075867,2.0,1.0,0.0,0.0,1567,0.22165679931640625,1.0889233350753784,0.0,0.24539946019649506,-0.13604016602039337,0.0,0.6104612350463867,1.0,1.0
59,0.6115322113037109,0.08969703316688538,0.2987707853317261,2.0,1.0,0.0,0.0,1567,0.22165679931640625,1.0908782482147217,0.0,0.24584001302719116,-0.13312038779258728,0.0,0.603591799736023,1.0,1.0
60,0.6048487424850464,0.10958468914031982,0.2855665385723114,2.0,1.0,0.0,0.0,1567,0.22165679931640625,1.0928332805633545,0.0,0.24628059566020966,-0.1302591860294342,0.0,0.5968165397644043,1.0,1.0
61,0.5981653928756714,0.12947233021259308,0.27236229181289673,2.0,1.0,0.0,0.0,1567,0.22165679931640625,1.0947883129119873,0.0,0.24672117829322815,-0.12745679914951324,0.0,0.5901361107826233,1.0,1.0
62,0.5914822220802307,0.1493588387966156,0.2591589093208313,2.0,1.0,0.0,0.0,1567,0.22165679931640625,1.0967432260513306,0.0,0.24716174602508545,-0.12471337616443634,0.0,0.5835506319999695,1.0,1.0
63,0.5847988128662109,0.16924649477005005,0.24595467746257782,2.0,1.0,0.0,0.0,1567,0.22165679931640625,1.0986982583999634,0.0,0.24760232865810394,-0.12202856689691544,0.0,0.5770596861839294,1.0,1.0
64,0.5781154632568359,0.1891341358423233,0.23275041580200195,2.0,1.0,0.0,0.0,1567,0.22165679931640625,1.1006532907485962,0.0,0.24804291129112244,-0.11940255016088486,0.0,0.5706634521484375,1.0,1.0
65,0.5714325904846191,0.2090204656124115,0.21954689919948578,2.0,1.0,0.0,0.0,1567,0.22165679931640625,1.1026082038879395,0.0,0.24848344922065735,-0.11683543771505356,0.0,0.5643622279167175,1.0,1.0
66,0.5647493600845337,0.22890706360340118,0.20634359121322632,2.0,1.0,0.0,0.0,1567,0.22165679931640625,1.1045631170272827,0.0,0.24892403185367584,-0.11432719975709915,0.0,0.5581558346748352,1.0,1.0
67,0.5580659508705139,0.24879470467567444,0.19313935935497284,2.0,1.0,0.0,0.0,1567,0.22165679931640625,1.1065181493759155,0.0,0.24936461448669434,-0.11187754571437836,0.0,0.5520437359809875,1.0,1.0
68,0.5513825416564941,0.2686823606491089,0.17993511259555817,2.0,1.0,0.0,0.0,1567,0.22165679931640625,1.1084731817245483,0.0,0.24980519711971283,-0.10948668420314789,0.0,0.5460264086723328,1.0,1.0
69,0.5446991920471191,0.2885689437389374,0.1667318046092987,2.0,1.0,0.0,0.0,1567,0.22165679931640625,1.1104280948638916,0.0,0.2502457797527313,-0.10715477913618088,0.0,0.5401040315628052,1.0,1.0
70,0.5380159616470337,0.30845651030540466,0.15352748334407806,2.0,1.0,0.0,0.0,1567,0.22165679931640625,1.1123831272125244,0.0,0.2506863474845886,-0.10488147288560867,0.0,0.5342761874198914,1.0,1.0
71,0.5313327312469482,0.32834407687187195,0.14032316207885742,2.0,1.0,0.0,0.0,1567,0.22165679931640625,1.1143381595611572,0.0,0.2511269152164459,-0.1026669591665268,0.0,0.5285431146621704,1.0,1.0
72,0.5246496200561523,0.34823060035705566,0.127119779586792,2.0,1.0,0.0,0.0,1567,0.22165679931640625,1.1162930727005005,0.0,0.2515674829483032,-0.10051140934228897,0.0,0.5229050517082214,1.0,1.0
73,0.5179665088653564,0.368117094039917,0.11391640454530716,2.0,1.0,0.0,0.0,1567,0.22165679931640625,1.1182479858398438,0.0,0.2520080506801605,-0.09841464459896088,0.0,0.5173617005348206,1.0,1.0
74,0.5112832188606262,0.3880046606063843,0.10071209818124771,2.0,1.0,0.0,0.0,1567,0.22165679931640625,1.1202030181884766,0.0,0.2524486184120178,-0.09637649357318878,0.0,0.5119127631187439,1.0,1.0
75,0.5045997500419617,0.4078923761844635,0.08750791847705841,2.0,1.0,0.0,0.0,1567,0.22165679931640625,1.1221580505371094,0.0,0.2528892159461975,-0.09439718723297119,0.0,0.5065586566925049,1.0,1.0
76,0.4979166090488434,0.42777886986732483,0.07430455833673477,2.0,1.0,0.0,0.0,1567,0.22165679931640625,1.1241129636764526,0.0,0.2533297836780548,-0.09247678518295288,0.0,0.5012994408607483,1.0,1.0
77,0.4912334382534027,0.44766539335250854,0.06110117584466934,2.0,1.0,0.0,0.0,1567,0.22165679931640625,1.126067876815796,0.0,0.2537703514099121,-0.0906151607632637,0.0,0.4961349666118622,1.0,1.0
78,0.4845501482486725,0.4675529897212982,0.047896839678287506,2.0,1.0,0.0,0.0,1567,0.22165679931640625,1.1280229091644287,0.0,0.2542109191417694,-0.08881215751171112,0.0,0.49106496572494507,1.0,1.0
79,0.4778670072555542,0.4874404966831207,0.03469252213835716,2.0,1.0,0.0,0.0,1567,0.22165679931640625,1.1299779415130615,0.0,0.2546514868736267,-0.08706795424222946,0.0,0.486089825630188,1.0,1.0
80,0.47118356823921204,0.507327139377594,0.021489297971129417,2.0,1.0,0.0,0.0,1567,0.22165679931640625,1.1319328546524048,0.0,0.2550920844078064,-0.08538274466991425,0.0,0.4812094569206238,1.0,1.0
81,0.4645002484321594,0.527214765548706,0.008284982293844223,2.0,1.0,0.0,0.0,1567,0.22165679931640625,1.1338878870010376,0.0,0.2555326521396637,-0.08375612646341324,0.0,0.4764236807823181,1.0,1.0
82,0.5416991114616394,0.4526941776275635,0.005606730934232473,2.0,1.0,0.0,0.0,1127,0.22165679931640625,1.1358429193496704,0.0,0.255973219871521,-0.08311516046524048,0.0,0.47036856412887573,1.0,1.0
83,0.5470837354660034,0.4322613477706909,0.020654896274209023,2.0,1.0,0.0,0.0,1127,0.22165679931640625,1.1377978324890137,0.0,0.2564138174057007,-0.0840267613530159,0.0,0.46213069558143616,1.0,1.0
84,0.5524677038192749,0.4118289053440094,0.03570343181490898,2.0,1.0,0.0,0.0,1127,0.22165679931640625,1.139752745628357,0.0,0.2568543553352356,-0.0848991796374321,0.0,0.4540160596370697,1.0,1.0
85,0.5578520894050598,0.39139512181282043,0.050752829760313034,2.0,1.0,0.0,0.0,1127,0.22165679931640625,1.1417077779769897,0.0,0.2572949230670929,-0.08573251217603683,0.0,0.44602400064468384,1.0,1.0
86,0.5632367134094238,0.3709612190723419,0.06580208241939545,2.0,1.0,0.0,0.0,1127,0.22165679931640625,1.1436628103256226,0.0,0.2577355206012726,-0.08652672171592712,0.0,0.43815499544143677,1.0,1.0
87,0.5686209797859192,0.3505285680294037,0.08085040003061295,2.0,1.0,0.0,0.0,1127,0.22165679931640625,1.1456177234649658,0.0,0.2581760883331299,-0.087281733751297,0.0,0.43040958046913147,1.0,1.0
88,0.5740053653717041,0.3300948441028595,0.09589983522891998,2.0,1.0,0.0,0.0,1127,0.22165679931640625,1.1475727558135986,0.0,0.2586166560649872,-0.08799765259027481,0.0,0.4227869510650635,1.0,1.0
89,0.5793900489807129,0.3096609115600586,0.1109490618109703,2.0,1.0,0.0,0.0,1127,0.22165679931640625,1.1495277881622314,0.0,0.25905725359916687,-0.08867444843053818,0.0,0.4152872860431671,1.0,1.0
90,0.5847740173339844,0.28922954201698303,0.12599650025367737,2.0,1.0,0.0,0.0,1127,0.22165679931640625,1.1514825820922852,0.0,0.2594977915287018,-0.08931201696395874,0.0,0.4079117178916931,1.0,1.0
91,0.5901582837104797,0.26879578828811646,0.14104591310024261,2.0,1.0,0.0,0.0,1127,0.22165679931640625,1.153437614440918,0.0,0.2599383592605591,-0.08991048485040665,0.0,0.4006583094596863,1.0,1.0
92,0.5955429077148438,0.24836188554763794,0.15609517693519592,2.0,1.0,0.0,0.0,1127,0.22165679931640625,1.1553926467895508,0.0,0.26037895679473877,-0.0904698520898819,0.0,0.393528014421463,1.0,1.0
93,0.6009272933006287,0.22792813181877136,0.17114455997943878,2.0,1.0,0.0,0.0,1127,0.22165679931640625,1.1573476791381836,0.0,0.26081952452659607,-0.09099005907773972,0.0,0.3865209221839905,1.0,1.0
94,0.6063116192817688,0.20749548077583313,0.18619291484355927,2.0,1.0,0.0,0.0,1127,0.22165679931640625,1.1593025922775269,0.0,0.26126009225845337,-0.0914711207151413,0.0,0.37963733077049255,1.0,1.0
95,0.6116963028907776,0.18706157803535461,0.20124214887619019,2.0,1.0,0.0,0.0,1127,0.22165679931640625,1.1612576246261597,0.0,0.26170068979263306,-0.09191307425498962,0.0,0.3728764057159424,1.0,1.0
96,0.6170802712440491,0.16662909090518951,0.2162906527519226,2.0,1.0,0.0,0.0,1127,0.22165679931640625,1.163212537765503,0.0,0.26214122772216797,-0.09231581538915634,0.0,0.3662390410900116,1.0,1.0
97,0.6224649548530579,0.14619627594947815,0.23133881390094757,2.0,1.0,0.0,0.0,1127,0.22165679931640625,1.1651674509048462,0.0,0.26258182525634766,-0.09267950057983398,0.0,0.359724760055542,1.0,1.0
98,0.6278492212295532,0.12576253712177277,0.246388241648674,2.0,1.0,0.0,0.0,1127,0.22165679931640625,1.167122483253479,0.0,0.26302239298820496,-0.09300398081541061,0.0,0.35333317518234253,1.0,1.0
99,0.6332335472106934,0.10532877594232559,0.26143765449523926,2.0,1.0,0.0,0.0,1127,0.22165679931640625,1.1690775156021118,0.0,0.26346296072006226,-0.0932893306016922,0.0,0.347064733505249,1.0,1.0
100,0.6386182308197021,0.08489487320184708,0.27648690342903137,2.0,1.0,0.0,0.0,1127,0.22165679931640625,1.1710325479507446,0.0,0.26390355825424194,-0.09353557974100113,0.0,0.3409194052219391,1.0,1.0
