ptnum,bary_x,bary_y,bary_z,Rout,Cd_x,Cd_y,Cd_z,faceid,theta,P_x,P_y,P_z,vortex_core_vel_x,vortex_core_vel_y,vortex_core_vel_z,Rin,gamma
0,0.0980401560664177,0.8911188244819641,0.010841019451618195,2.0,1.0,0.0,0.0,1440,2.865830421447754,-0.9622179269790649,0.0,0.2722804546356201,0.0002494906366337091,0.0,-0.03287392109632492,1.0,1.0
1,0.08492745459079742,0.8798235058784485,0.03524904325604439,2.0,1.0,0.0,0.0,1440,2.865830421447754,-0.9641462564468384,0.0,0.27282610535621643,0.001277817995287478,0.0,-0.10506195574998856,1.0,1.0
2,0.07181490957736969,0.8685287237167358,0.05965636670589447,2.0,1.0,0.0,0.0,1440,2.865830421447754,-0.966074526309967,0.0,0.27337175607681274,0.0029523142147809267,0.0,-0.17471924424171448,1.0,1.0
3,0.058701783418655396,0.8572337627410889,0.08406445384025574,2.0,1.0,0.0,0.0,1440,2.865830421447754,-0.9680028557777405,0.0,0.27391743659973145,0.005273101851344109,0.0,-0.24184992909431458,1.0,1.0
4,0.04558979719877243,0.8459392189979553,0.10847098380327225,2.0,1.0,0.0,0.0,1440,2.865830421447754,-0.9699310660362244,0.0,0.27446305751800537,0.008239866234362125,0.0,-0.3064477741718292,1.0,1.0
5,0.032477036118507385,0.8346439599990845,0.13287900388240814,2.0,1.0,0.0,0.0,1440,2.865830421447754,-0.9718593955039978,0.0,0.2750087082386017,0.011852998286485672,0.0,-0.3685208559036255,1.0,1.0
6,0.019364506006240845,0.8233491778373718,0.15728631615638733,2.0,1.0,0.0,0.0,1440,2.865830421447754,-0.9737876653671265,0.0,0.275554358959198,0.016112245619297028,0.0,-0.42806342244148254,1.0,1.0
7,0.006251737475395203,0.812053918838501,0.18169434368610382,2.0,1.0,0.0,0.0,1440,2.865830421447754,-0.9757159948348999,0.0,0.2761000096797943,0.021017787978053093,0.0,-0.48507899045944214,1.0,1.0
8,0.007008194923400879,0.1995568871498108,0.7934349179267883,2.0,1.0,0.0,0.0,16,2.865830421447754,-0.9776443243026733,0.0,0.276645690202713,0.013288657180964947,0.0,-0.5370717644691467,1.0,1.0
9,0.020401477813720703,0.21145516633987427,0.768143355846405,2.0,1.0,0.0,0.0,16,2.865830421447754,-0.979572594165802,0.0,0.2771913409233093,-0.00577184371650219,0.0,-0.5841978192329407,1.0,1.0
10,0.033794283866882324,0.22335317730903625,0.7428525686264038,2.0,1.0,0.0,0.0,16,2.865830421447754,-0.9815008044242859,0.0,0.27773696184158325,-0.02402431331574917,0.0,-0.6287099123001099,1.0,1.0
11,0.0471876859664917,0.2352519929409027,0.7175602912902832,2.0,1.0,0.0,0.0,16,2.865830421447754,-0.9834291338920593,0.0,0.27828261256217957,-0.04147018492221832,0.0,-0.6706116199493408,1.0,1.0
12,0.060581326484680176,0.24715003371238708,0.6922686100006104,2.0,1.0,0.0,0.0,16,2.865830421447754,-0.985357403755188,0.0,0.27882829308509827,-0.05810903385281563,0.0,-0.7098994851112366,1.0,1.0
13,0.0739748477935791,0.25904884934425354,0.6669763326644897,2.0,1.0,0.0,0.0,16,2.865830421447754,-0.9872857332229614,0.0,0.2793739438056946,-0.07394023984670639,0.0,-0.746575653553009,1.0,1.0
14,0.08736836910247803,0.2709476053714752,0.6416840553283691,2.0,1.0,0.0,0.0,16,2.865830421447754,-0.9892140626907349,0.0,0.2799195945262909,-0.08896403759717941,0.0,-0.7806388139724731,1.0,1.0
15,0.10076183080673218,0.2828464210033417,0.6163917183876038,2.0,1.0,0.0,0.0,16,2.865830421447754,-0.9911423921585083,0.0,0.2804652452468872,-0.10318032652139664,0.0,-0.8120889663696289,1.0,1.0
16,0.11415433883666992,0.29474395513534546,0.5911017060279846,2.0,1.0,0.0,0.0,16,2.865830421447754,-0.9930705428123474,0.0,0.28101086616516113,-0.11658834666013718,0.0,-0.8409237861633301,1.0,1.0
17,0.12754815816879272,0.3066425025463104,0.5658093094825745,2.0,1.0,0.0,0.0,16,2.865830421447754,-0.9949988722801208,0.0,0.28155654668807983,-0.12919028103351593,0.0,-0.8671483397483826,1.0,1.0
18,0.14094173908233643,0.3185412883758545,0.5405169725418091,2.0,1.0,0.0,0.0,16,2.865830421447754,-0.9969272017478943,0.0,0.28210219740867615,-0.14098452031612396,0.0,-0.8907601237297058,1.0,1.0
19,0.15433496236801147,0.33043956756591797,0.5152254700660706,2.0,1.0,0.0,0.0,16,2.865830421447754,-0.998855471611023,0.0,0.28264784812927246,-0.15197107195854187,0.0,-0.9117581844329834,1.0,1.0
20,0.1677285134792328,0.34233829379081726,0.48993316292762756,2.0,1.0,0.0,0.0,16,2.865830421447754,-1.0007838010787964,0.0,0.2831934988498688,-0.16215045750141144,0.0,-0.9301440715789795,1.0,1.0
21,0.1811220645904541,0.3542371094226837,0.46464085578918457,2.0,1.0,0.0,0.0,16,2.865830421447754,-1.0027121305465698,0.0,0.2837391495704651,-0.17152240872383118,0.0,-0.9459171891212463,1.0,1.0
22,0.19451507925987244,0.3661348521709442,0.43935003876686096,2.0,1.0,0.0,0.0,16,2.865830421447754,-1.0046403408050537,0.0,0.2842848002910614,-0.18008671700954437,0.0,-0.9590763449668884,1.0,1.0
23,0.20790857076644897,0.37803369760513306,0.41405773162841797,2.0,1.0,0.0,0.0,16,2.865830421447754,-1.0065686702728271,0.0,0.2848304510116577,-0.18784381449222565,0.0,-0.9696237444877625,1.0,1.0
24,0.22130167484283447,0.38993144035339355,0.388766884803772,2.0,1.0,0.0,0.0,16,2.865830421447754,-1.008496880531311,0.0,0.28537610173225403,-0.1947934627532959,0.0,-0.9775576591491699,1.0,1.0
25,0.23469525575637817,0.4018302261829376,0.3634745478630066,2.0,1.0,0.0,0.0,16,2.865830421447754,-1.0104252099990845,0.0,0.28592175245285034,-0.20093582570552826,0.0,-0.9828792810440063,1.0,1.0
26,0.24808895587921143,0.413728803396225,0.3381822109222412,2.0,1.0,0.0,0.0,16,2.865830421447754,-1.012353539466858,0.0,0.28646743297576904,-0.20627085864543915,0.0,-0.9855878353118896,1.0,1.0
27,0.26148250699043274,0.42562758922576904,0.3128899037837982,2.0,1.0,0.0,0.0,16,2.865830421447754,-1.0142818689346313,0.0,0.28701308369636536,-0.21079835295677185,0.0,-0.9856836199760437,1.0,1.0
28,0.2748752236366272,0.43752560019493103,0.2875991463661194,2.0,1.0,0.0,0.0,16,2.865830421447754,-1.0162100791931152,0.0,0.2875587046146393,-0.2145182192325592,0.0,-0.9831666350364685,1.0,1.0
29,0.2882687449455261,0.4494244158267975,0.2623068690299988,2.0,1.0,0.0,0.0,16,2.865830421447754,-1.0181384086608887,0.0,0.2881043553352356,-0.2174309343099594,0.0,-0.9780367612838745,1.0,1.0
30,0.3016622066497803,0.46132323145866394,0.2370145320892334,2.0,1.0,0.0,0.0,16,2.865830421447754,-1.020066738128662,0.0,0.2886500060558319,-0.21953614056110382,0.0,-0.9702938199043274,1.0,1.0
31,0.3150556683540344,0.47322070598602295,0.21172361075878143,2.0,1.0,0.0,0.0,16,2.865830421447754,-1.021994948387146,0.0,0.2891956865787506,-0.22083432972431183,0.0,-0.9599385857582092,1.0,1.0
32,0.32844918966293335,0.485119491815567,0.18643133342266083,2.0,1.0,0.0,0.0,16,2.865830421447754,-1.0239232778549194,0.0,0.2897413372993469,-0.22132478654384613,0.0,-0.9469700455665588,1.0,1.0
33,0.3418426513671875,0.49701830744743347,0.16113901138305664,2.0,1.0,0.0,0.0,16,2.865830421447754,-1.0258516073226929,0.0,0.29028698801994324,-0.22100777924060822,0.0,-0.9313884973526001,1.0,1.0
34,0.35523539781570435,0.5089163184165955,0.135848268866539,2.0,1.0,0.0,0.0,16,2.865830421447754,-1.0277798175811768,0.0,0.29083260893821716,-0.219883531332016,0.0,-0.9131953120231628,1.0,1.0
35,0.36862891912460327,0.5208151340484619,0.11055596172809601,2.0,1.0,0.0,0.0,16,2.865830421447754,-1.0297081470489502,0.0,0.2913782596588135,-0.21795178949832916,0.0,-0.8923881649971008,1.0,1.0
36,0.38202276825904846,0.5327136516571045,0.08526358753442764,2.0,1.0,0.0,0.0,16,2.865830421447754,-1.0316364765167236,0.0,0.2919239401817322,-0.21521270275115967,0.0,-0.8689679503440857,1.0,1.0
37,0.395416259765625,0.544612467288971,0.05997128412127495,2.0,1.0,0.0,0.0,16,2.865830421447754,-1.033564805984497,0.0,0.2924695909023285,-0.21166609227657318,0.0,-0.8429349064826965,1.0,1.0
38,0.4088093340396881,0.5565102100372314,0.03468044474720955,2.0,1.0,0.0,0.0,16,2.865830421447754,-1.035493016242981,0.0,0.2930152416229248,-0.2073124200105667,0.0,-0.8142905831336975,1.0,1.0
39,0.42220282554626465,0.5684090256690979,0.009388137608766556,2.0,1.0,0.0,0.0,16,2.865830421447754,-1.0374213457107544,0.0,0.2935608923435211,-0.20215100049972534,0.0,-0.7830318808555603,1.0,1.0
40,0.42054301500320435,0.014414498582482338,0.5650424957275391,2.0,1.0,0.0,0.0,1572,2.865830421447754,-1.0393496751785278,0.0,0.2941065728664398,-0.20005373656749725,0.0,-0.7651075720787048,1.0,1.0
41,0.4099975824356079,0.03733623027801514,0.552666187286377,2.0,1.0,0.0,0.0,1572,2.865830421447754,-1.0412778854370117,0.0,0.29465219378471375,-0.20005840063095093,0.0,-0.756076991558075,1.0,1.0
42,0.39945143461227417,0.0602593757212162,0.5402891635894775,2.0,1.0,0.0,0.0,1572,2.865830421447754,-1.0432062149047852,0.0,0.29519784450531006,-0.20002193748950958,0.0,-0.7470022439956665,1.0,1.0
43,0.38890540599823,0.08318253606557846,0.5279120802879333,2.0,1.0,0.0,0.0,1572,2.865830421447754,-1.0451345443725586,0.0,0.29574349522590637,-0.1999443918466568,0.0,-0.737883985042572,1.0,1.0
44,0.3783600926399231,0.10610436648130417,0.5155355334281921,2.0,1.0,0.0,0.0,1572,2.865830421447754,-1.0470627546310425,0.0,0.2962891459465027,-0.19982574880123138,0.0,-0.7287225127220154,1.0,1.0
45,0.367814302444458,0.1290275752544403,0.5031580924987793,2.0,1.0,0.0,0.0,1572,2.865830421447754,-1.048991084098816,0.0,0.2968348264694214,-0.19966600835323334,0.0,-0.719516932964325,1.0,1.0
46,0.3572680950164795,0.15195076167583466,0.49078112840652466,2.0,1.0,0.0,0.0,1572,2.865830421447754,-1.0509194135665894,0.0,0.2973804771900177,-0.1994650959968567,0.0,-0.7102678418159485,1.0,1.0
47,0.34672266244888306,0.174872487783432,0.47840481996536255,2.0,1.0,0.0,0.0,1572,2.865830421447754,-1.0528476238250732,0.0,0.2979260981082916,-0.1992231011390686,0.0,-0.7009756565093994,1.0,1.0
48,0.3361766040325165,0.19779565930366516,0.46602776646614075,2.0,1.0,0.0,0.0,1572,2.865830421447754,-1.0547759532928467,0.0,0.29847174882888794,-0.19894000887870789,0.0,-0.6916394233703613,1.0,1.0
49,0.32563045620918274,0.22071880102157593,0.45365074276924133,2.0,1.0,0.0,0.0,1572,2.865830421447754,-1.0567042827606201,0.0,0.29901739954948425,-0.19861577451229095,0.0,-0.6822594404220581,1.0,1.0
50,0.3150845766067505,0.24364201724529266,0.44127339124679565,2.0,1.0,0.0,0.0,1572,2.865830421447754,-1.0586326122283936,0.0,0.29956308007240295,-0.19825045764446259,0.0,-0.6728358864784241,1.0,1.0
51,0.30453935265541077,0.26656386256217957,0.4288967549800873,2.0,1.0,0.0,0.0,1572,2.865830421447754,-1.0605608224868774,0.0,0.30010873079299927,-0.19784405827522278,0.0,-0.6633692383766174,1.0,1.0
52,0.2939932644367218,0.28948700428009033,0.41651973128318787,2.0,1.0,0.0,0.0,1572,2.865830421447754,-1.0624891519546509,0.0,0.3006543815135956,-0.19739650189876556,0.0,-0.6538586020469666,1.0,1.0
53,0.283447802066803,0.31240877509117126,0.40414339303970337,2.0,1.0,0.0,0.0,1572,2.865830421447754,-1.0644173622131348,0.0,0.3012000024318695,-0.19690784811973572,0.0,-0.6443047523498535,1.0,1.0
54,0.2729016840457916,0.33533188700675964,0.39176639914512634,2.0,1.0,0.0,0.0,1572,2.865830421447754,-1.0663456916809082,0.0,0.3017456531524658,-0.19637805223464966,0.0,-0.6347068548202515,1.0,1.0
55,0.26235583424568176,0.35825514793395996,0.3793890178203583,2.0,1.0,0.0,0.0,1572,2.865830421447754,-1.0682740211486816,0.0,0.3022913336753845,-0.19580720365047455,0.0,-0.6250653266906738,1.0,1.0
56,0.2518097460269928,0.3811782896518707,0.36701199412345886,2.0,1.0,0.0,0.0,1572,2.865830421447754,-1.070202350616455,0.0,0.30283698439598083,-0.19519519805908203,0.0,-0.6153802275657654,1.0,1.0
57,0.2412635087966919,0.40410149097442627,0.35463500022888184,2.0,1.0,0.0,0.0,1572,2.865830421447754,-1.0721306800842285,0.0,0.30338263511657715,-0.1945420503616333,0.0,-0.6056514382362366,1.0,1.0
58,0.23071837425231934,0.4270232617855072,0.3422583341598511,2.0,1.0,0.0,0.0,1572,2.865830421447754,-1.0740588903427124,0.0,0.30392828583717346,-0.1938478946685791,0.0,-0.5958796143531799,1.0,1.0
59,0.2201729714870453,0.44994500279426575,0.32988205552101135,2.0,1.0,0.0,0.0,1572,2.865830421447754,-1.0759871006011963,0.0,0.3044739067554474,-0.19311261177062988,0.0,-0.5860643982887268,1.0,1.0
60,0.20962709188461304,0.47286826372146606,0.3175046443939209,2.0,1.0,0.0,0.0,1572,2.865830421447754,-1.0779154300689697,0.0,0.3050195872783661,-0.19233617186546326,0.0,-0.5762047171592712,1.0,1.0
61,0.19908097386360168,0.49579137563705444,0.30512765049934387,2.0,1.0,0.0,0.0,1572,2.865830421447754,-1.0798437595367432,0.0,0.3055652379989624,-0.1915186047554016,0.0,-0.5663016438484192,1.0,1.0
62,0.18853482604026794,0.5187145471572876,0.29275062680244446,2.0,1.0,0.0,0.0,1572,2.865830421447754,-1.0817720890045166,0.0,0.3061108887195587,-0.19065992534160614,0.0,-0.5563548803329468,1.0,1.0
63,0.1779886782169342,0.5416377186775208,0.28037360310554504,2.0,1.0,0.0,0.0,1572,2.865830421447754,-1.08370041847229,0.0,0.30665653944015503,-0.18976011872291565,0.0,-0.5463644862174988,1.0,1.0
64,0.16744375228881836,0.5645596385002136,0.267996609210968,2.0,1.0,0.0,0.0,1572,2.865830421447754,-1.085628628730774,0.0,0.30720221996307373,-0.18881933391094208,0.0,-0.5363311171531677,1.0,1.0
65,0.1568983793258667,0.5874813199043274,0.2556203007698059,2.0,1.0,0.0,0.0,1572,2.865830421447754,-1.0875568389892578,0.0,0.30774784088134766,-0.1878373920917511,0.0,-0.5262541770935059,1.0,1.0
66,0.14635217189788818,0.6104045510292053,0.2432432770729065,2.0,1.0,0.0,0.0,1572,2.865830421447754,-1.0894851684570312,0.0,0.30829349160194397,-0.18681424856185913,0.0,-0.5161330103874207,1.0,1.0
67,0.13580606877803802,0.6333276629447937,0.23086626827716827,2.0,1.0,0.0,0.0,1572,2.865830421447754,-1.0914134979248047,0.0,0.3088391423225403,-0.18575000762939453,0.0,-0.5059682726860046,1.0,1.0
68,0.12525992095470428,0.6562508344650269,0.21848924458026886,2.0,1.0,0.0,0.0,1572,2.865830421447754,-1.0933418273925781,0.0,0.3093847930431366,-0.1846446543931961,0.0,-0.49575990438461304,1.0,1.0
69,0.11471405625343323,0.6791740655899048,0.206111878156662,2.0,1.0,0.0,0.0,1572,2.865830421447754,-1.0952701568603516,0.0,0.3099304735660553,-0.18349821865558624,0.0,-0.48550790548324585,1.0,1.0
70,0.10416790843009949,0.7020972371101379,0.19373485445976257,2.0,1.0,0.0,0.0,1572,2.865830421447754,-1.097198486328125,0.0,0.3104761242866516,-0.18231064081192017,0.0,-0.47521233558654785,1.0,1.0
71,0.09362281858921051,0.7250189781188965,0.181358203291893,2.0,1.0,0.0,0.0,1572,2.865830421447754,-1.0991266965866089,0.0,0.3110217750072479,-0.18108206987380981,0.0,-0.4648738205432892,1.0,1.0
72,0.08307729661464691,0.7479407787322998,0.16898192465305328,2.0,1.0,0.0,0.0,1572,2.865830421447754,-1.1010549068450928,0.0,0.31156739592552185,-0.17981234192848206,0.0,-0.45449167490005493,1.0,1.0
73,0.07253116369247437,0.770863950252533,0.15660488605499268,2.0,1.0,0.0,0.0,1572,2.865830421447754,-1.1029832363128662,0.0,0.31211304664611816,-0.1785014271736145,0.0,-0.44406530261039734,1.0,1.0
74,0.06198522448539734,0.7937872409820557,0.144227534532547,2.0,1.0,0.0,0.0,1572,2.865830421447754,-1.1049115657806396,0.0,0.31265872716903687,-0.1771494299173355,0.0,-0.4335952699184418,1.0,1.0
75,0.05143921077251434,0.8167102932929993,0.1318504959344864,2.0,1.0,0.0,0.0,1572,2.865830421447754,-1.106839895248413,0.0,0.3132043778896332,-0.1757563054561615,0.0,-0.42308175563812256,1.0,1.0
76,0.0408930703997612,0.8396334648132324,0.11947346478700638,2.0,1.0,0.0,0.0,1572,2.865830421447754,-1.1087682247161865,0.0,0.3137500286102295,-0.17432205379009247,0.0,-0.41252458095550537,1.0,1.0
77,0.03034757822751999,0.8625552654266357,0.10709715634584427,2.0,1.0,0.0,0.0,1572,2.865830421447754,-1.1106964349746704,0.0,0.3142956495285034,-0.17284679412841797,0.0,-0.4019244313240051,1.0,1.0
78,0.0198027566075325,0.8854770660400391,0.09472017735242844,2.0,1.0,0.0,0.0,1572,2.865830421447754,-1.1126246452331543,0.0,0.3148413300514221,-0.17133046686649323,0.0,-0.3912806808948517,1.0,1.0
79,0.009256497025489807,0.9084003567695618,0.08234314620494843,2.0,1.0,0.0,0.0,1572,2.865830421447754,-1.1145529747009277,0.0,0.31538698077201843,-0.16977286338806152,0.0,-0.3805926442146301,1.0,1.0
80,0.06867178529500961,0.9302012920379639,0.0011269209207966924,2.0,1.0,0.0,0.0,1713,2.865830421447754,-1.1164813041687012,0.0,0.31593263149261475,-0.16795502603054047,0.0,-0.36992815136909485,1.0,1.0
81,0.04570918530225754,0.9439476728439331,0.010343139991164207,2.0,1.0,0.0,0.0,1713,2.865830421447754,-1.1184096336364746,0.0,0.31647828221321106,-0.16451643407344818,0.0,-0.35974451899528503,1.0,1.0
82,0.02274646796286106,0.9576941728591919,0.019559359177947044,2.0,1.0,0.0,0.0,1713,2.865830421447754,-1.120337963104248,0.0,0.3170239329338074,-0.16102540493011475,0.0,-0.3495945334434509,1.0,1.0
83,0.02859785035252571,0.971198320388794,0.00020382844377309084,2.0,1.0,0.0,0.0,791,2.865830421447754,-1.1222662925720215,0.0,0.3175696134567261,-0.15750229358673096,0.0,-0.3395528793334961,1.0,1.0
84,0.018971074372529984,0.9591891765594482,0.021839749068021774,2.0,1.0,0.0,0.0,791,2.865830421447754,-1.1241945028305054,0.0,0.318115234375,-0.15610192716121674,0.0,-0.33740127086639404,1.0,1.0
85,0.009343862533569336,0.9471803903579712,0.04347574710845947,2.0,1.0,0.0,0.0,791,2.865830421447754,-1.1261227130889893,0.0,0.3186608850955963,-0.1547268182039261,0.0,-0.33529019355773926,1.0,1.0
86,0.00028008222579956055,0.06484127044677734,0.9348786473274231,2.0,1.0,0.0,0.0,1061,2.865830421447754,-1.1280510425567627,0.0,0.3192065358161926,-0.15335065126419067,0.0,-0.3332271873950958,1.0,1.0
87,0.009791016578674316,0.07725062966346741,0.9129583835601807,2.0,1.0,0.0,0.0,1061,2.865830421447754,-1.1299793720245361,0.0,0.31975218653678894,-0.15114033222198486,0.0,-0.3314296305179596,1.0,1.0
88,0.019302427768707275,0.08965976536273956,0.8910378217697144,2.0,1.0,0.0,0.0,1061,2.865830421447754,-1.1319077014923096,0.0,0.32029786705970764,-0.14895156025886536,0.0,-0.329620897769928,1.0,1.0
89,0.02881336212158203,0.10206916183233261,0.8691174983978271,2.0,1.0,0.0,0.0,1061,2.865830421447754,-1.133836030960083,0.0,0.32084351778030396,-0.14678429067134857,0.0,-0.3278011381626129,1.0,1.0
90,0.038323819637298584,0.11447770893573761,0.847198486328125,2.0,1.0,0.0,0.0,1061,2.865830421447754,-1.135764241218567,0.0,0.3213891386985779,-0.14463868737220764,0.0,-0.3259704113006592,1.0,1.0
91,0.047834813594818115,0.12688706815242767,0.825278103351593,2.0,1.0,0.0,0.0,1061,2.865830421447754,-1.1376925706863403,0.0,0.3219347894191742,-0.14251448214054108,0.0,-0.32412847876548767,1.0,1.0
92,0.057345807552337646,0.13929520547389984,0.8033589720726013,2.0,1.0,0.0,0.0,1061,2.865830421447754,-1.1396207809448242,0.0,0.3224804699420929,-0.14041203260421753,0.0,-0.3222755491733551,1.0,1.0
93,0.06685680150985718,0.1517045944929123,0.7814385890960693,2.0,1.0,0.0,0.0,1061,2.865830421447754,-1.1415491104125977,0.0,0.3230261206626892,-0.13833089172840118,0.0,-0.32041144371032715,1.0,1.0
94,0.07636785507202148,0.16411390900611877,0.7595182657241821,2.0,1.0,0.0,0.0,1061,2.865830421447754,-1.143477439880371,0.0,0.3235717713832855,-0.13627132773399353,0.0,-0.31853631138801575,1.0,1.0
95,0.08587884902954102,0.17652326822280884,0.7375978827476501,2.0,1.0,0.0,0.0,1061,2.865830421447754,-1.1454057693481445,0.0,0.32411742210388184,-0.1342332661151886,0.0,-0.31665006279945374,1.0,1.0
96,0.09538924694061279,0.18893185257911682,0.7156789302825928,2.0,1.0,0.0,0.0,1061,2.865830421447754,-1.1473339796066284,0.0,0.32466304302215576,-0.13221688568592072,0.0,-0.31475284695625305,1.0,1.0
97,0.1049005389213562,0.20134098827838898,0.693758487701416,2.0,1.0,0.0,0.0,1061,2.865830421447754,-1.1492623090744019,0.0,0.32520872354507446,-0.13022193312644958,0.0,-0.3128444254398346,1.0,1.0
98,0.11441123485565186,0.21374934911727905,0.6718394160270691,2.0,1.0,0.0,0.0,1061,2.865830421447754,-1.1511905193328857,0.0,0.3257543742656708,-0.12824863195419312,0.0,-0.31092503666877747,1.0,1.0
99,0.12392228841781616,0.2261587232351303,0.6499189734458923,2.0,1.0,0.0,0.0,1061,2.865830421447754,-1.1531188488006592,0.0,0.3263000249862671,-0.12629671394824982,0.0,-0.30899444222450256,1.0,1.0
100,0.1334332823753357,0.23856805264949799,0.6279986500740051,2.0,1.0,0.0,0.0,1061,2.865830421447754,-1.1550471782684326,0.0,0.3268456757068634,-0.12436634302139282,0.0,-0.3070527911186218,1.0,1.0
