ptnum,analytic_vortex_core_vel_x,analytic_vortex_core_vel_y,analytic_vortex_core_vel_z,P_x,P_y,P_z,id,gamma
0,-0.3873807489871979,0.0,-0.36009398102760315,1.2669297456741333,0.0,-1.362922191619873,0,1.0
1,-0.38635575771331787,0.0,-0.3611935079097748,1.2707982063293457,0.0,-1.3593158721923828,0,1.0
2,-0.38532760739326477,0.0,-0.3622901737689972,1.2746565341949463,0.0,-1.355698585510254,0,1.0
3,-0.38429635763168335,0.0,-0.36338385939598083,1.278504490852356,0.0,-1.3520703315734863,0,1.0
4,-0.3832619786262512,0.0,-0.36447465419769287,1.2823421955108643,0.0,-1.34843111038208,0,1.0
5,-0.38222455978393555,0.0,-0.36556243896484375,1.286169409751892,0.0,-1.3447810411453247,0,1.0
6,-0.38118404150009155,0.0,-0.36664730310440063,1.2899863719940186,0.0,-1.3411201238632202,0,1.0
7,-0.38014042377471924,0.0,-0.36772918701171875,1.2937928438186646,0.0,-1.3374483585357666,0,1.0
8,-0.379093736410141,0.0,-0.36880815029144287,1.29758882522583,0.0,-1.3337657451629639,0,1.0
9,-0.3780268728733063,0.0,-0.36987072229385376,1.3013743162155151,0.0,-1.3300724029541016,0,1.0
10,-0.3769741356372833,0.0,-0.37094366550445557,1.3051493167877197,0.0,-1.3263683319091797,0,1.0
11,-0.3759353756904602,0.0,-0.37202703952789307,1.3089138269424438,0.0,-1.3226535320281982,0,1.0
12,-0.374859482049942,0.0,-0.3730804920196533,1.312667727470398,0.0,-1.3189280033111572,0,1.0
13,-0.3737950921058655,0.0,-0.37414154410362244,1.316411018371582,0.0,-1.3151918649673462,0,1.0
14,-0.3727327287197113,0.0,-0.37520527839660645,1.320143699645996,0.0,-1.3114451169967651,0,1.0
15,-0.37168169021606445,0.0,-0.37627682089805603,1.3238657712936401,0.0,-1.307687759399414,0,1.0
16,-0.3706107437610626,0.0,-0.3773317039012909,1.3275771141052246,0.0,-1.303919792175293,0,1.0
17,-0.369536817073822,0.0,-0.37838348746299744,1.3312777280807495,0.0,-1.3001413345336914,0,1.0
18,-0.368443101644516,0.0,-0.37941843271255493,1.3349674940109253,0.0,-1.2963523864746094,0,1.0
19,-0.3673632740974426,0.0,-0.3804640769958496,1.3386465311050415,0.0,-1.2925529479980469,0,1.0
20,-0.3662804663181305,0.0,-0.38150665163993835,1.3423147201538086,0.0,-1.2887431383132935,0,1.0
21,-0.3651922643184662,0.0,-0.3825431764125824,1.3459720611572266,0.0,-1.2849228382110596,0,1.0
22,-0.3641035258769989,0.0,-0.3835795819759369,1.3496185541152954,0.0,-1.2810921669006348,0,1.0
23,-0.36301189661026,0.0,-0.3846128582954407,1.3532540798187256,0.0,-1.2772512435913086,0,1.0
24,-0.36191728711128235,0.0,-0.38564303517341614,1.3568787574768066,0.0,-1.2733999490737915,0,1.0
25,-0.3608197867870331,0.0,-0.3866700828075409,1.360492467880249,0.0,-1.269538402557373,0,1.0
26,-0.35972175002098083,0.0,-0.3876969814300537,1.3640952110290527,0.0,-1.2656666040420532,0,1.0
27,-0.3586348295211792,0.0,-0.388731986284256,1.3676869869232178,0.0,-1.261784553527832,0,1.0
28,-0.35752856731414795,0.0,-0.3897497355937958,1.3712676763534546,0.0,-1.2578922510147095,0,1.0
29,-0.3564193546772003,0.0,-0.3907643258571625,1.3748372793197632,0.0,-1.253989815711975,0,1.0
30,-0.3553072512149811,0.0,-0.3917757570743561,1.3783957958221436,0.0,-1.2500771284103394,0,1.0
31,-0.3541761338710785,0.0,-0.39276960492134094,1.3819431066513062,0.0,-1.2461544275283813,0,1.0
32,-0.35305604338645935,0.0,-0.3937716484069824,1.385479211807251,0.0,-1.242221713066101,0,1.0
33,-0.35193541646003723,0.0,-0.3947734832763672,1.3890042304992676,0.0,-1.2382789850234985,0,1.0
34,-0.35081198811531067,0.0,-0.39577212929725647,1.3925179243087769,0.0,-1.2343262434005737,0,1.0
35,-0.34968575835227966,0.0,-0.39676761627197266,1.3960204124450684,0.0,-1.2303634881973267,0,1.0
36,-0.34855666756629944,0.0,-0.3977598547935486,1.399511694908142,0.0,-1.2263908386230469,0,1.0
37,-0.34742477536201477,0.0,-0.39874890446662903,1.4029916524887085,0.0,-1.2224082946777344,0,1.0
38,-0.34629005193710327,0.0,-0.3997347354888916,1.406460165977478,0.0,-1.2184158563613892,0,1.0
39,-0.3451525568962097,0.0,-0.4007173180580139,1.4099173545837402,0.0,-1.2144135236740112,0,1.0
40,-0.34401729702949524,0.0,-0.4017028212547302,1.4133632183074951,0.0,-1.2104014158248901,0,1.0
41,-0.34286919236183167,0.0,-0.40267279744148254,1.4167976379394531,0.0,-1.2063795328140259,0,1.0
42,-0.3417283594608307,0.0,-0.4036518335342407,1.4202206134796143,0.0,-1.2023478746414185,0,1.0
43,-0.34057971835136414,0.0,-0.404621422290802,1.4236321449279785,0.0,-1.1983065605163574,0,1.0
44,-0.3394283950328827,0.0,-0.405587762594223,1.4270321130752563,0.0,-1.1942555904388428,0,1.0
45,-0.33826932311058044,0.0,-0.40654462575912476,1.4304206371307373,0.0,-1.1901949644088745,0,1.0
46,-0.3371124863624573,0.0,-0.4075043797492981,1.4337975978851318,0.0,-1.1861246824264526,0,1.0
47,-0.3359529376029968,0.0,-0.4084608554840088,1.43716299533844,0.0,-1.1820448637008667,0,1.0
48,-0.3347929120063782,0.0,-0.40941712260246277,1.440516710281372,0.0,-1.1779555082321167,0,1.0
49,-0.33364343643188477,0.0,-0.4103822410106659,1.4438588619232178,0.0,-1.1738566160202026,0,1.0
50,-0.3324757218360901,0.0,-0.41132882237434387,1.4471893310546875,0.0,-1.1697481870651245,0,1.0
51,-0.3312877416610718,0.0,-0.4122536778450012,1.4505079984664917,0.0,-1.1656303405761719,0,1.0
52,-0.3301147222518921,0.0,-0.41319358348846436,1.45381498336792,0.0,-1.1615030765533447,0,1.0
53,-0.3289389908313751,0.0,-0.41413018107414246,1.4571102857589722,0.0,-1.157366394996643,0,1.0
54,-0.3277606666088104,0.0,-0.41506338119506836,1.4603937864303589,0.0,-1.1532204151153564,0,1.0
55,-0.3265796899795532,0.0,-0.41599321365356445,1.46366548538208,0.0,-1.1490651369094849,0,1.0
56,-0.3253960609436035,0.0,-0.4169197082519531,1.4669253826141357,0.0,-1.1449005603790283,0,1.0
57,-0.3242098093032837,0.0,-0.4178428649902344,1.4701733589172363,0.0,-1.1407268047332764,0,1.0
58,-0.32302093505859375,0.0,-0.4187626242637634,1.4734095335006714,0.0,-1.1365437507629395,0,1.0
59,-0.3218294680118561,0.0,-0.41967901587486267,1.4766337871551514,0.0,-1.1323515176773071,0,1.0
60,-0.32064005732536316,0.0,-0.42059841752052307,1.4798461198806763,0.0,-1.1281501054763794,0,1.0
61,-0.3194386661052704,0.0,-0.4215015769004822,1.483046531677246,0.0,-1.1239396333694458,0,1.0
62,-0.3182394504547119,0.0,-0.42240777611732483,1.4862349033355713,0.0,-1.1197201013565063,0,1.0
63,-0.3170376121997833,0.0,-0.4233105480670929,1.4894112348556519,0.0,-1.115491509437561,0,1.0
64,-0.3158378303050995,0.0,-0.4242163598537445,1.4925756454467773,0.0,-1.1112538576126099,0,1.0
65,-0.3146308958530426,0.0,-0.4251123070716858,1.4957278966903687,0.0,-1.1070072650909424,0,1.0
66,-0.313421368598938,0.0,-0.4260047972202301,1.4988681077957153,0.0,-1.1027517318725586,0,1.0
67,-0.3122093677520752,0.0,-0.4268938899040222,1.5019962787628174,0.0,-1.0984872579574585,0,1.0
68,-0.31099027395248413,0.0,-0.42777296900749207,1.5051122903823853,0.0,-1.0942139625549316,0,1.0
69,-0.3097732663154602,0.0,-0.42865508794784546,1.508216142654419,0.0,-1.089931845664978,0,1.0
70,-0.30855369567871094,0.0,-0.42953380942344666,1.5113078355789185,0.0,-1.0856409072875977,0,1.0
71,-0.3073316216468811,0.0,-0.4304090142250061,1.5143872499465942,0.0,-1.0813411474227905,0,1.0
72,-0.3061071038246155,0.0,-0.43128079175949097,1.5174545049667358,0.0,-1.0770326852798462,0,1.0
73,-0.3048801124095917,0.0,-0.4321490228176117,1.5205094814300537,0.0,-1.0727155208587646,0,1.0
74,-0.30366697907447815,0.0,-0.4330333471298218,1.5235521793365479,0.0,-1.068389654159546,0,1.0
75,-0.30241870880126953,0.0,-0.43387508392333984,1.5265824794769287,0.0,-1.0640552043914795,0,1.0
76,-0.30118635296821594,0.0,-0.43473610281944275,1.5296005010604858,0.0,-1.0597121715545654,0,1.0
77,-0.2999637722969055,0.0,-0.43560677766799927,1.5326062440872192,0.0,-1.0553605556488037,0,1.0
78,-0.2987244725227356,0.0,-0.4364575445652008,1.5355995893478394,0.0,-1.0510003566741943,0,1.0
79,-0.2974667251110077,0.0,-0.43728503584861755,1.5385804176330566,0.0,-1.0466316938400269,0,1.0
80,-0.2962387204170227,0.0,-0.43814852833747864,1.5415489673614502,0.0,-1.0422545671463013,0,1.0
81,-0.29497817158699036,0.0,-0.43897220492362976,1.544505000114441,0.0,-1.0378689765930176,0,1.0
82,-0.2937433123588562,0.0,-0.4398254454135895,1.5474486351013184,0.0,-1.0334750413894653,0,1.0
83,-0.29247811436653137,0.0,-0.4406418800354004,1.5503796339035034,0.0,-1.0290727615356445,0,1.0
84,-0.29122456908226013,0.0,-0.4414713382720947,1.5532981157302856,0.0,-1.0246622562408447,0,1.0
85,-0.28996869921684265,0.0,-0.4422972500324249,1.556204080581665,0.0,-1.0202434062957764,0,1.0
86,-0.28872424364089966,0.0,-0.4431363344192505,1.5590975284576416,0.0,-1.015816330909729,0,1.0
87,-0.28746363520622253,0.0,-0.4439551532268524,1.5619783401489258,0.0,-1.0113810300827026,0,1.0
88,-0.2862006425857544,0.0,-0.4447704255580902,1.5648466348648071,0.0,-1.0069375038146973,0,1.0
89,-0.2849266231060028,0.0,-0.4455673098564148,1.567702293395996,0.0,-1.0024858713150024,0,1.0
90,-0.28366777300834656,0.0,-0.4463900923728943,1.5705451965332031,0.0,-0.9980260133743286,0,1.0
91,-0.28239792585372925,0.0,-0.44719451665878296,1.5733753442764282,0.0,-0.9935582280158997,0,1.0
92,-0.2811257839202881,0.0,-0.4479953348636627,1.576192855834961,0.0,-0.989082396030426,0,1.0
93,-0.2798513174057007,0.0,-0.44879257678985596,1.5789977312088013,0.0,-0.9845985174179077,0,1.0
94,-0.2785746455192566,0.0,-0.4495861232280731,1.5817897319793701,0.0,-0.9801067113876343,0,1.0
95,-0.27729567885398865,0.0,-0.45037609338760376,1.584568977355957,0.0,-0.9756070375442505,0,1.0
96,-0.2760145664215088,0.0,-0.4511623680591583,1.587335467338562,0.0,-0.9710994362831116,0,1.0
97,-0.2747311592102051,0.0,-0.451945036649704,1.5900890827178955,0.0,-0.9665840268135071,0,1.0
98,-0.2734454870223999,0.0,-0.45272406935691833,1.592829942703247,0.0,-0.9620607495307922,0,1.0
99,-0.2721576988697052,0.0,-0.4534994065761566,1.5955578088760376,0.0,-0.9575297832489014,0,1.0
100,-0.27086764574050903,0.0,-0.4542711079120636,1.5982729196548462,0.0,-0.9529910087585449,0,1.0
101,-0.26957541704177856,0.0,-0.4550391435623169,1.6009750366210938,0.0,-0.9484446048736572,0,1.0
102,-0.2682727873325348,0.0,-0.45578840374946594,1.6036642789840698,0.0,-0.9438904523849487,0,1.0
103,-0.2669762670993805,0.0,-0.4565490484237671,1.6063405275344849,0.0,-0.9393287301063538,0,1.0
104,-0.2656776010990143,0.0,-0.45730602741241455,1.6090037822723389,0.0,-0.9347593784332275,0,1.0
105,-0.2643848657608032,0.0,-0.4580744206905365,1.6116540431976318,0.0,-0.9301824569702148,0,1.0
106,-0.263081818819046,0.0,-0.4588240087032318,1.6142913103103638,0.0,-0.9255980253219604,0,1.0
107,-0.2617686986923218,0.0,-0.4595547020435333,1.6169155836105347,0.0,-0.9210061430931091,0,1.0
108,-0.2604614794254303,0.0,-0.4602968394756317,1.619526743888855,0.0,-0.9164068102836609,0,1.0
109,-0.2591601014137268,0.0,-0.46105051040649414,1.6221247911453247,0.0,-0.9118000268936157,0,1.0
110,-0.2578486502170563,0.0,-0.461785227060318,1.6247097253799438,0.0,-0.907185971736908,0,1.0
111,-0.256535142660141,0.0,-0.462516188621521,1.6272815465927124,0.0,-0.9025645852088928,0,1.0
112,-0.2552195191383362,0.0,-0.4632434844970703,1.6298402547836304,0.0,-0.8979358673095703,0,1.0
113,-0.253901869058609,0.0,-0.463966965675354,1.6323857307434082,0.0,-0.89329993724823,0,1.0
114,-0.2525697648525238,0.0,-0.4646688997745514,1.634917974472046,0.0,-0.8886568546295166,0,1.0
115,-0.2512604892253876,0.0,-0.4654027223587036,1.637437105178833,0.0,-0.8840065598487854,0,1.0
116,-0.24993668496608734,0.0,-0.46611499786376953,1.63994300365448,0.0,-0.8793491125106812,0,1.0
117,-0.24861088395118713,0.0,-0.4668234586715698,1.6424356698989868,0.0,-0.8746845722198486,0,1.0
118,-0.24728311598300934,0.0,-0.46752816438674927,1.644914984703064,0.0,-0.8700129985809326,0,1.0
119,-0.24595332145690918,0.0,-0.4682290852069855,1.647381067276001,0.0,-0.8653343319892883,0,1.0
120,-0.24460943043231964,0.0,-0.4689082205295563,1.6498337984085083,0.0,-0.8606487512588501,0,1.0
121,-0.24328777194023132,0.0,-0.46961963176727295,1.6522732973098755,0.0,-0.8559561371803284,0,1.0
122,-0.241952046751976,0.0,-0.47030916810035706,1.654699444770813,0.0,-0.8512566089630127,0,1.0
123,-0.24061435461044312,0.0,-0.4709949493408203,1.6571122407913208,0.0,-0.8465501666069031,0,1.0
124,-0.23927472531795502,0.0,-0.47167691588401794,1.6595115661621094,0.0,-0.8418369293212891,0,1.0
125,-0.23793314397335052,0.0,-0.47235509753227234,1.6618975400924683,0.0,-0.8371168375015259,0,1.0
126,-0.2365896999835968,0.0,-0.4730294346809387,1.664270043373108,0.0,-0.8323900699615479,0,1.0
127,-0.23524430394172668,0.0,-0.4736999273300171,1.6666290760040283,0.0,-0.8276565670967102,0,1.0
128,-0.23389704525470734,0.0,-0.47436660528182983,1.6689746379852295,0.0,-0.8229163885116577,0,1.0
129,-0.2325361967086792,0.0,-0.4750111699104309,1.6713067293167114,0.0,-0.8181695938110352,0,1.0
130,-0.23118522763252258,0.0,-0.47567012906074524,1.6736253499984741,0.0,-0.8134161829948425,0,1.0
131,-0.22983093559741974,0.0,-0.4763217270374298,1.675930380821228,0.0,-0.8086562156677246,0,1.0
132,-0.22847622632980347,0.0,-0.4769730269908905,1.6782219409942627,0.0,-0.8038896918296814,0,1.0
133,-0.22711968421936035,0.0,-0.4776204526424408,1.6804999113082886,0.0,-0.7991167306900024,0,1.0
134,-0.2257613092660904,0.0,-0.4782640337944031,1.6827642917633057,0.0,-0.794337272644043,0,1.0
135,-0.2244010865688324,0.0,-0.47890374064445496,1.685015082359314,0.0,-0.7895514369010925,0,1.0
136,-0.22303907573223114,0.0,-0.4795396029949188,1.6872522830963135,0.0,-0.7847591638565063,0,1.0
137,-0.22167524695396423,0.0,-0.4801715612411499,1.6894758939743042,0.0,-0.779960572719574,0,1.0
138,-0.22030963003635406,0.0,-0.48079967498779297,1.6916857957839966,0.0,-0.7751556634902954,0,1.0
139,-0.21894223988056183,0.0,-0.48142388463020325,1.6938821077346802,0.0,-0.7703444957733154,0,1.0
140,-0.21757306158542633,0.0,-0.48204419016838074,1.6960647106170654,0.0,-0.7655271291732788,0,1.0
141,-0.21620216965675354,0.0,-0.4826606214046478,1.6982336044311523,0.0,-0.7607035636901855,0,1.0
142,-0.2148294895887375,0.0,-0.48327314853668213,1.700388789176941,0.0,-0.7558738589286804,0,1.0
143,-0.21345508098602295,0.0,-0.48388177156448364,1.7025302648544312,0.0,-0.7510380744934082,0,1.0
144,-0.2120789736509323,0.0,-0.48448649048805237,1.7046579122543335,0.0,-0.7461962103843689,0,1.0
145,-0.2107011377811432,0.0,-0.4850872755050659,1.7067718505859375,0.0,-0.7413483262062073,0,1.0
146,-0.20932160317897797,0.0,-0.48568418622016907,1.7088719606399536,0.0,-0.7364944815635681,0,1.0
147,-0.20794038474559784,0.0,-0.48627713322639465,1.7109582424163818,0.0,-0.7316346764564514,0,1.0
148,-0.2065574824810028,0.0,-0.48686617612838745,1.7130306959152222,0.0,-0.7267689108848572,0,1.0
149,-0.20517581701278687,0.0,-0.4874586760997772,1.7150893211364746,0.0,-0.721897304058075,0,1.0
150,-0.20378956198692322,0.0,-0.4880398213863373,1.7171341180801392,0.0,-0.7170198559761047,0,1.0
151,-0.20240165293216705,0.0,-0.48861703276634216,1.7191650867462158,0.0,-0.7121366262435913,0,1.0
152,-0.20101210474967957,0.0,-0.48919034004211426,1.721182107925415,0.0,-0.7072476148605347,0,1.0
153,-0.1996181309223175,0.0,-0.48975223302841187,1.7231853008270264,0.0,-0.7023529410362244,0,1.0
154,-0.19822536408901215,0.0,-0.49031761288642883,1.7251745462417603,0.0,-0.6974525451660156,0,1.0
155,-0.19683101773262024,0.0,-0.49087899923324585,1.7271498441696167,0.0,-0.692546546459198,0,1.0
156,-0.1954350620508194,0.0,-0.4914364218711853,1.7291111946105957,0.0,-0.6876349449157715,0,1.0
157,-0.1940375566482544,0.0,-0.4919899106025696,1.7310585975646973,0.0,-0.6827178001403809,0,1.0
158,-0.19263960421085358,0.0,-0.4925430715084076,1.7329920530319214,0.0,-0.6777951121330261,0,1.0
159,-0.19123896956443787,0.0,-0.49308857321739197,1.7349114418029785,0.0,-0.6728670001029968,0,1.0
160,-0.18983563780784607,0.0,-0.4936264455318451,1.7368167638778687,0.0,-0.6679334044456482,0,1.0
161,-0.18843303620815277,0.0,-0.49416765570640564,1.7387081384658813,0.0,-0.6629944443702698,0,1.0
162,-0.18702779710292816,0.0,-0.49470123648643494,1.740585446357727,0.0,-0.6580501198768616,0,1.0
163,-0.18561992049217224,0.0,-0.4952271282672882,1.7424486875534058,0.0,-0.6531004905700684,0,1.0
164,-0.18421274423599243,0.0,-0.4957563579082489,1.7442978620529175,0.0,-0.6481455564498901,0,1.0
165,-0.1828029900789261,0.0,-0.49627789855003357,1.7461329698562622,0.0,-0.6431853771209717,0,1.0
166,-0.18140140175819397,0.0,-0.49681487679481506,1.74795401096344,0.0,-0.638219952583313,0,1.0
167,-0.17998863756656647,0.0,-0.4973284900188446,1.7497608661651611,0.0,-0.6332494020462036,0,1.0
168,-0.1785648763179779,0.0,-0.4978185296058655,1.7515535354614258,0.0,-0.6282737851142883,0,1.0
169,-0.17715877294540405,0.0,-0.4983435571193695,1.7533321380615234,0.0,-0.6232930421829224,0,1.0
170,-0.17574171721935272,0.0,-0.49884504079818726,1.7550965547561646,0.0,-0.6183072924613953,0,1.0
171,-0.1743232160806656,0.0,-0.49934250116348267,1.7568467855453491,0.0,-0.613316535949707,0,1.0
172,-0.1728939563035965,0.0,-0.49981632828712463,1.7585828304290771,0.0,-0.6083208918571472,0,1.0
173,-0.17148198187351227,0.0,-0.5003253221511841,1.7603046894073486,0.0,-0.6033202409744263,0,1.0
174,-0.17005005478858948,0.0,-0.500791072845459,1.762012243270874,0.0,-0.5983147621154785,0,1.0
175,-0.16862605512142181,0.0,-0.5012723207473755,1.7637056112289429,0.0,-0.593304455280304,0,1.0
176,-0.16720978915691376,0.0,-0.5017692446708679,1.7653847932815552,0.0,-0.5882893204689026,0,1.0
177,-0.16577395796775818,0.0,-0.5022227168083191,1.7670496702194214,0.0,-0.583269476890564,0,1.0
178,-0.1643459051847458,0.0,-0.5026918649673462,1.7687002420425415,0.0,-0.5782449245452881,0,1.0
179,-0.16291652619838715,0.0,-0.5031569600105286,1.7703365087509155,0.0,-0.5732157230377197,0,1.0
180,-0.1614946871995926,0.0,-0.5036377906799316,1.771958589553833,0.0,-0.5681818127632141,0,1.0
181,-0.16005291044712067,0.0,-0.5040711760520935,1.7735662460327148,0.0,-0.5631433725357056,0,1.0
182,-0.15862052142620087,0.0,-0.504527747631073,1.7751595973968506,0.0,-0.5581004023551941,0,1.0
183,-0.15718594193458557,0.0,-0.5049765110015869,1.7767386436462402,0.0,-0.5530529022216797,0,1.0
184,-0.15574924647808075,0.0,-0.50541752576828,1.7783032655715942,0.0,-0.5480009317398071,0,1.0
185,-0.15431299805641174,0.0,-0.5058618187904358,1.7798535823822021,0.0,-0.5429445505142212,0,1.0
186,-0.15287379920482635,0.0,-0.5062946677207947,1.7813894748687744,0.0,-0.5378837585449219,0,1.0
187,-0.15143504738807678,0.0,-0.5067307949066162,1.7829110622406006,0.0,-0.532818615436554,0,1.0
188,-0.1499934047460556,0.0,-0.5071554780006409,1.7844182252883911,0.0,-0.5277491807937622,0,1.0
189,-0.14855222404003143,0.0,-0.5075834393501282,1.785910964012146,0.0,-0.5226755142211914,0,1.0
190,-0.1471090018749237,0.0,-0.5080035924911499,1.7873892784118652,0.0,-0.5175976157188416,0,1.0
191,-0.14567284286022186,0.0,-0.5084397196769714,1.7888531684875488,0.0,-0.5125154852867126,0,1.0
192,-0.14422719180583954,0.0,-0.5088517069816589,1.7903026342391968,0.0,-0.5074291825294495,0,1.0
193,-0.1427803784608841,0.0,-0.5092595219612122,1.7917375564575195,0.0,-0.5023388266563416,0,1.0
194,-0.14132431149482727,0.0,-0.5096431374549866,1.7931580543518066,0.0,-0.4972444176673889,0,1.0
195,-0.13987527787685394,0.0,-0.5100427269935608,1.7945640087127686,0.0,-0.49214601516723633,0,1.0
196,-0.1384250819683075,0.0,-0.5104382634162903,1.7959555387496948,0.0,-0.4870436191558838,0,1.0
197,-0.1369737982749939,0.0,-0.5108296275138855,1.797332525253296,0.0,-0.48193731904029846,0,1.0
198,-0.13552139699459076,0.0,-0.5112168192863464,1.7986949682235718,0.0,-0.47682711482048035,0,1.0
199,-0.13406720757484436,0.0,-0.5115962028503418,1.8000428676605225,0.0,-0.4717130661010742,0,1.0
200,-0.13261264562606812,0.0,-0.5119751691818237,1.801376223564148,0.0,-0.46659520268440247,0,1.0
201,-0.13115699589252472,0.0,-0.5123500227928162,1.8026950359344482,0.0,-0.4614735543727875,0,1.0
202,-0.12970030307769775,0.0,-0.5127207040786743,1.8039993047714233,0.0,-0.456348180770874,0,1.0
203,-0.12824255228042603,0.0,-0.513087272644043,1.8052890300750732,0.0,-0.4512191116809845,0,1.0
204,-0.12678377330303192,0.0,-0.5134496688842773,1.806564211845398,0.0,-0.44608640670776367,0,1.0
